# == pyFAI calibration ==
# Distance Sample to Detector: 0.9084140734515469 m
# PONI: 1.891e-01, 2.398e-01 m
# Rotations: 0.085177 0.004888 0.000005 rad
# 
# == Fit2d calibration ==
# Distance Sample-beamCenter: 911.730 mm
# Center: x=943.315, y=1125.594 pix
# Tilt: 4.888 deg  TiltPlanRot: 176.711 deg
# 
# Detector Pilatus 300kw	 PixelSize= 1.720e-04, 1.720e-04 m
#    Detector has a mask: True 
#    Detector has a dark current: False 
#    detector has a flat field: False 
# 
# Wavelength: 8.856e-11 m
# Mask applied: from detector
# Dark current applied: False
# Flat field applied: False
# Polarization factor: None
# Normalization factor: 1.0
# --> b_toney_lab6_th3_scan1_0008.xy
#       2th_deg             I 
  9.967115e+00    1.741458e+01
  9.972288e+00    1.723024e+01
  9.977461e+00    1.591038e+01
  9.982634e+00    1.493799e+01
  9.987807e+00    1.410555e+01
  9.992980e+00    1.427221e+01
  9.998153e+00    1.454390e+01
  1.000333e+01    1.424997e+01
  1.000850e+01    1.400414e+01
  1.001367e+01    1.371503e+01
  1.001884e+01    1.354280e+01
  1.002402e+01    1.342000e+01
  1.002919e+01    1.347827e+01
  1.003436e+01    1.378538e+01
  1.003954e+01    1.360107e+01
  1.004471e+01    1.340460e+01
  1.004988e+01    1.344977e+01
  1.005506e+01    1.355309e+01
  1.006023e+01    1.331141e+01
  1.006540e+01    1.319314e+01
  1.007057e+01    1.307979e+01
  1.007575e+01    1.310308e+01
  1.008092e+01    1.317022e+01
  1.008609e+01    1.333014e+01
  1.009127e+01    1.345189e+01
  1.009644e+01    1.327886e+01
  1.010161e+01    1.320509e+01
  1.010678e+01    1.329694e+01
  1.011196e+01    1.312957e+01
  1.011713e+01    1.307357e+01
  1.012230e+01    1.313000e+01
  1.012748e+01    1.309024e+01
  1.013265e+01    1.326116e+01
  1.013782e+01    1.357096e+01
  1.014300e+01    1.346311e+01
  1.014817e+01    1.335657e+01
  1.015334e+01    1.327006e+01
  1.015851e+01    1.316993e+01
  1.016369e+01    1.309626e+01
  1.016886e+01    1.299516e+01
  1.017403e+01    1.294606e+01
  1.017921e+01    1.313330e+01
  1.018438e+01    1.314665e+01
  1.018955e+01    1.305193e+01
  1.019473e+01    1.340101e+01
  1.019990e+01    1.359639e+01
  1.020507e+01    1.350084e+01
  1.021024e+01    1.342962e+01
  1.021542e+01    1.352109e+01
  1.022059e+01    1.347592e+01
  1.022576e+01    1.348956e+01
  1.023094e+01    1.352742e+01
  1.023611e+01    1.353612e+01
  1.024128e+01    1.348657e+01
  1.024645e+01    1.357081e+01
  1.025163e+01    1.366911e+01
  1.025680e+01    1.355103e+01
  1.026197e+01    1.345026e+01
  1.026715e+01    1.337334e+01
  1.027232e+01    1.334505e+01
  1.027749e+01    1.327642e+01
  1.028267e+01    1.313732e+01
  1.028784e+01    1.299019e+01
  1.029301e+01    1.296560e+01
  1.029818e+01    1.303445e+01
  1.030336e+01    1.310532e+01
  1.030853e+01    1.315612e+01
  1.031370e+01    1.327592e+01
  1.031888e+01    1.336127e+01
  1.032405e+01    1.324238e+01
  1.032922e+01    1.301057e+01
  1.033439e+01    1.297927e+01
  1.033957e+01    1.315206e+01
  1.034474e+01    1.303985e+01
  1.034991e+01    1.299410e+01
  1.035509e+01    1.305997e+01
  1.036026e+01    1.311339e+01
  1.036543e+01    1.307398e+01
  1.037061e+01    1.300256e+01
  1.037578e+01    1.296560e+01
  1.038095e+01    1.300593e+01
  1.038612e+01    1.317839e+01
  1.039130e+01    1.304152e+01
  1.039647e+01    1.302623e+01
  1.040164e+01    1.310989e+01
  1.040682e+01    1.316510e+01
  1.041199e+01    1.337992e+01
  1.041716e+01    1.327045e+01
  1.042233e+01    1.296363e+01
  1.042751e+01    1.284542e+01
  1.043268e+01    1.305794e+01
  1.043785e+01    1.318612e+01
  1.044303e+01    1.318219e+01
  1.044820e+01    1.321037e+01
  1.045337e+01    1.325751e+01
  1.045855e+01    1.302572e+01
  1.046372e+01    1.298701e+01
  1.046889e+01    1.309922e+01
  1.047406e+01    1.310209e+01
  1.047924e+01    1.300627e+01
  1.048441e+01    1.309804e+01
  1.048958e+01    1.320024e+01
  1.049476e+01    1.313679e+01
  1.049993e+01    1.320570e+01
  1.050510e+01    1.323921e+01
  1.051028e+01    1.327788e+01
  1.051545e+01    1.321704e+01
  1.052062e+01    1.322386e+01
  1.052579e+01    1.320989e+01
  1.053097e+01    1.318322e+01
  1.053614e+01    1.318351e+01
  1.054131e+01    1.324636e+01
  1.054649e+01    1.313046e+01
  1.055166e+01    1.307638e+01
  1.055683e+01    1.312044e+01
  1.056200e+01    1.311146e+01
  1.056718e+01    1.301235e+01
  1.057235e+01    1.302310e+01
  1.057752e+01    1.295099e+01
  1.058270e+01    1.296267e+01
  1.058787e+01    1.295460e+01
  1.059304e+01    1.309659e+01
  1.059822e+01    1.324425e+01
  1.060339e+01    1.317743e+01
  1.060856e+01    1.315938e+01
  1.061373e+01    1.314359e+01
  1.061891e+01    1.288152e+01
  1.062408e+01    1.270203e+01
  1.062925e+01    1.284603e+01
  1.063443e+01    1.277521e+01
  1.063960e+01    1.276177e+01
  1.064477e+01    1.288523e+01
  1.064994e+01    1.310514e+01
  1.065512e+01    1.303384e+01
  1.066029e+01    1.282852e+01
  1.066546e+01    1.277403e+01
  1.067064e+01    1.287067e+01
  1.067581e+01    1.300701e+01
  1.068098e+01    1.313030e+01
  1.068616e+01    1.312982e+01
  1.069133e+01    1.310200e+01
  1.069650e+01    1.314276e+01
  1.070167e+01    1.317761e+01
  1.070685e+01    1.318133e+01
  1.071202e+01    1.309764e+01
  1.071719e+01    1.306140e+01
  1.072237e+01    1.308773e+01
  1.072754e+01    1.309642e+01
  1.073271e+01    1.304284e+01
  1.073788e+01    1.310307e+01
  1.074306e+01    1.317835e+01
  1.074823e+01    1.319927e+01
  1.075340e+01    1.312589e+01
  1.075858e+01    1.304245e+01
  1.076375e+01    1.297469e+01
  1.076892e+01    1.312001e+01
  1.077410e+01    1.320155e+01
  1.077927e+01    1.315036e+01
  1.078444e+01    1.313764e+01
  1.078961e+01    1.316271e+01
  1.079479e+01    1.319139e+01
  1.079996e+01    1.316109e+01
  1.080513e+01    1.311484e+01
  1.081031e+01    1.300251e+01
  1.081548e+01    1.301225e+01
  1.082065e+01    1.312042e+01
  1.082582e+01    1.305411e+01
  1.083100e+01    1.300641e+01
  1.083617e+01    1.311895e+01
  1.084134e+01    1.310912e+01
  1.084652e+01    1.299674e+01
  1.085169e+01    1.302564e+01
  1.085686e+01    1.309493e+01
  1.086204e+01    1.310831e+01
  1.086721e+01    1.308929e+01
  1.087238e+01    1.301725e+01
  1.087755e+01    1.288300e+01
  1.088273e+01    1.283965e+01
  1.088790e+01    1.297867e+01
  1.089307e+01    1.302855e+01
  1.089825e+01    1.300210e+01
  1.090342e+01    1.293313e+01
  1.090859e+01    1.293568e+01
  1.091377e+01    1.295255e+01
  1.091894e+01    1.297604e+01
  1.092411e+01    1.304123e+01
  1.092928e+01    1.303803e+01
  1.093446e+01    1.301049e+01
  1.093963e+01    1.302021e+01
  1.094480e+01    1.297760e+01
  1.094998e+01    1.303867e+01
  1.095515e+01    1.313969e+01
  1.096032e+01    1.310515e+01
  1.096549e+01    1.302915e+01
  1.097067e+01    1.301040e+01
  1.097584e+01    1.297974e+01
  1.098101e+01    1.287799e+01
  1.098619e+01    1.289927e+01
  1.099136e+01    1.303901e+01
  1.099653e+01    1.299488e+01
  1.100171e+01    1.287652e+01
  1.100688e+01    1.300413e+01
  1.101205e+01    1.305384e+01
  1.101722e+01    1.295088e+01
  1.102240e+01    1.289908e+01
  1.102757e+01    1.287051e+01
  1.103274e+01    1.291088e+01
  1.103792e+01    1.302203e+01
  1.104309e+01    1.296274e+01
  1.104826e+01    1.269804e+01
  1.105343e+01    1.258955e+01
  1.105861e+01    1.281187e+01
  1.106378e+01    1.297601e+01
  1.106895e+01    1.310627e+01
  1.107413e+01    1.301031e+01
  1.107930e+01    1.283042e+01
  1.108447e+01    1.278096e+01
  1.108965e+01    1.287176e+01
  1.109482e+01    1.295465e+01
  1.109999e+01    1.293912e+01
  1.110516e+01    1.293406e+01
  1.111034e+01    1.294593e+01
  1.111551e+01    1.285568e+01
  1.112068e+01    1.294408e+01
  1.112586e+01    1.295611e+01
  1.113103e+01    1.287728e+01
  1.113620e+01    1.282304e+01
  1.114137e+01    1.285926e+01
  1.114655e+01    1.291035e+01
  1.115172e+01    1.287238e+01
  1.115689e+01    1.288121e+01
  1.116207e+01    1.278088e+01
  1.116724e+01    1.292750e+01
  1.117241e+01    1.298991e+01
  1.117759e+01    1.297102e+01
  1.118276e+01    1.294494e+01
  1.118793e+01    1.289929e+01
  1.119310e+01    1.279764e+01
  1.119828e+01    1.285884e+01
  1.120345e+01    1.297753e+01
  1.120862e+01    1.300742e+01
  1.121380e+01    1.307000e+01
  1.121897e+01    1.306996e+01
  1.122414e+01    1.299888e+01
  1.122931e+01    1.288634e+01
  1.123449e+01    1.290401e+01
  1.123966e+01    1.295371e+01
  1.124483e+01    1.311289e+01
  1.125001e+01    1.312349e+01
  1.125518e+01    1.293117e+01
  1.126035e+01    1.279741e+01
  1.126553e+01    1.277620e+01
  1.127070e+01    1.280631e+01
  1.127587e+01    1.275333e+01
  1.128104e+01    1.283216e+01
  1.128622e+01    1.291373e+01
  1.129139e+01    1.296853e+01
  1.129656e+01    1.292703e+01
  1.130174e+01    1.302767e+01
  1.130691e+01    1.298268e+01
  1.131208e+01    1.288237e+01
  1.131726e+01    1.278978e+01
  1.132243e+01    1.285165e+01
  1.132760e+01    1.285334e+01
  1.133277e+01    1.289314e+01
  1.133795e+01    1.293639e+01
  1.134312e+01    1.286125e+01
  1.134829e+01    1.272203e+01
  1.135347e+01    1.279525e+01
  1.135864e+01    1.295793e+01
  1.136381e+01    1.293519e+01
  1.136898e+01    1.283433e+01
  1.137416e+01    1.272178e+01
  1.137933e+01    1.273896e+01
  1.138450e+01    1.284157e+01
  1.138968e+01    1.285194e+01
  1.139485e+01    1.280253e+01
  1.140002e+01    1.281743e+01
  1.140520e+01    1.276823e+01
  1.141037e+01    1.271115e+01
  1.141554e+01    1.277903e+01
  1.142071e+01    1.279838e+01
  1.142589e+01    1.283252e+01
  1.143106e+01    1.277495e+01
  1.143623e+01    1.284884e+01
  1.144141e+01    1.286385e+01
  1.144658e+01    1.278981e+01
  1.145175e+01    1.267095e+01
  1.145692e+01    1.267776e+01
  1.146210e+01    1.278826e+01
  1.146727e+01    1.270751e+01
  1.147244e+01    1.273921e+01
  1.147762e+01    1.287233e+01
  1.148279e+01    1.290747e+01
  1.148796e+01    1.281040e+01
  1.149314e+01    1.275695e+01
  1.149831e+01    1.274800e+01
  1.150348e+01    1.283953e+01
  1.150865e+01    1.278781e+01
  1.151383e+01    1.267274e+01
  1.151900e+01    1.271202e+01
  1.152417e+01    1.263313e+01
  1.152935e+01    1.264217e+01
  1.153452e+01    1.260942e+01
  1.153969e+01    1.269986e+01
  1.154486e+01    1.268491e+01
  1.155004e+01    1.276236e+01
  1.155521e+01    1.277904e+01
  1.156038e+01    1.277318e+01
  1.156556e+01    1.275857e+01
  1.157073e+01    1.278976e+01
  1.157590e+01    1.283843e+01
  1.158108e+01    1.294695e+01
  1.158625e+01    1.285606e+01
  1.159142e+01    1.263233e+01
  1.159659e+01    1.245985e+01
  1.160177e+01    1.249180e+01
  1.160694e+01    1.267197e+01
  1.161211e+01    1.284502e+01
  1.161729e+01    1.280020e+01
  1.162246e+01    1.277472e+01
  1.162763e+01    1.274988e+01
  1.163281e+01    1.278725e+01
  1.163798e+01    1.277804e+01
  1.164315e+01    1.276718e+01
  1.164832e+01    1.276633e+01
  1.165350e+01    1.281917e+01
  1.165867e+01    1.287535e+01
  1.166384e+01    1.288231e+01
  1.166902e+01    1.273682e+01
  1.167419e+01    1.272449e+01
  1.167936e+01    1.272725e+01
  1.168453e+01    1.271290e+01
  1.168971e+01    1.259619e+01
  1.169488e+01    1.256659e+01
  1.170005e+01    1.261976e+01
  1.170523e+01    1.271480e+01
  1.171040e+01    1.263121e+01
  1.171557e+01    1.256441e+01
  1.172075e+01    1.260025e+01
  1.172592e+01    1.274527e+01
  1.173109e+01    1.279235e+01
  1.173626e+01    1.269859e+01
  1.174144e+01    1.261490e+01
  1.174661e+01    1.261710e+01
  1.175178e+01    1.269210e+01
  1.175696e+01    1.268318e+01
  1.176213e+01    1.262812e+01
  1.176730e+01    1.259962e+01
  1.177247e+01    1.257559e+01
  1.177765e+01    1.260812e+01
  1.178282e+01    1.270041e+01
  1.178799e+01    1.277876e+01
  1.179317e+01    1.280448e+01
  1.179834e+01    1.273520e+01
  1.180351e+01    1.267302e+01
  1.180869e+01    1.279853e+01
  1.181386e+01    1.292393e+01
  1.181903e+01    1.291237e+01
  1.182420e+01    1.293950e+01
  1.182938e+01    1.291280e+01
  1.183455e+01    1.286033e+01
  1.183972e+01    1.279178e+01
  1.184490e+01    1.284129e+01
  1.185007e+01    1.272933e+01
  1.185524e+01    1.266977e+01
  1.186041e+01    1.266114e+01
  1.186559e+01    1.270025e+01
  1.187076e+01    1.276155e+01
  1.187593e+01    1.286616e+01
  1.188111e+01    1.280014e+01
  1.188628e+01    1.270690e+01
  1.189145e+01    1.269936e+01
  1.189663e+01    1.288806e+01
  1.190180e+01    1.300787e+01
  1.190697e+01    1.309558e+01
  1.191214e+01    1.312710e+01
  1.191732e+01    1.305448e+01
  1.192249e+01    1.291016e+01
  1.192766e+01    1.281511e+01
  1.193284e+01    1.283601e+01
  1.193801e+01    1.290410e+01
  1.194318e+01    1.298350e+01
  1.194835e+01    1.306822e+01
  1.195353e+01    1.322408e+01
  1.195870e+01    1.321737e+01
  1.196387e+01    1.312674e+01
  1.196905e+01    1.327812e+01
  1.197422e+01    1.338274e+01
  1.197939e+01    1.330571e+01
  1.198457e+01    1.319018e+01
  1.198974e+01    1.335474e+01
  1.199491e+01    1.358818e+01
  1.200008e+01    1.348922e+01
  1.200526e+01    1.327624e+01
  1.201043e+01    1.334785e+01
  1.201560e+01    1.338587e+01
  1.202078e+01    1.327165e+01
  1.202595e+01    1.315179e+01
  1.203112e+01    1.311112e+01
  1.203630e+01    1.322881e+01
  1.204147e+01    1.341866e+01
  1.204664e+01    1.352624e+01
  1.205181e+01    1.354205e+01
  1.205699e+01    1.355968e+01
  1.206216e+01    1.357044e+01
  1.206733e+01    1.358440e+01
  1.207251e+01    1.368170e+01
  1.207768e+01    1.381395e+01
  1.208285e+01    1.396408e+01
  1.208802e+01    1.403120e+01
  1.209320e+01    1.413931e+01
  1.209837e+01    1.442682e+01
  1.210354e+01    1.468016e+01
  1.210872e+01    1.484787e+01
  1.211389e+01    1.507809e+01
  1.211906e+01    1.543041e+01
  1.212424e+01    1.579928e+01
  1.212941e+01    1.603863e+01
  1.213458e+01    1.642185e+01
  1.213975e+01    1.708332e+01
  1.214493e+01    1.790243e+01
  1.215010e+01    1.874873e+01
  1.215527e+01    1.962566e+01
  1.216045e+01    2.079906e+01
  1.216562e+01    2.234520e+01
  1.217079e+01    2.443563e+01
  1.217596e+01    2.731449e+01
  1.218114e+01    3.181900e+01
  1.218631e+01    3.853464e+01
  1.219148e+01    5.020678e+01
  1.219666e+01    7.427158e+01
  1.220183e+01    1.354858e+02
  1.220700e+01    2.934093e+02
  1.221218e+01    6.094203e+02
  1.221735e+01    1.119874e+03
  1.222252e+01    1.654856e+03
  1.222769e+01    1.804776e+03
  1.223287e+01    1.523461e+03
  1.223804e+01    1.149912e+03
  1.224321e+01    8.637732e+02
  1.224839e+01    5.842048e+02
  1.225356e+01    3.720291e+02
  1.225873e+01    1.704066e+02
  1.226390e+01    7.713499e+01
  1.226908e+01    5.137669e+01
  1.227425e+01    3.957093e+01
  1.227942e+01    3.279393e+01
  1.228460e+01    2.841146e+01
  1.228977e+01    2.531201e+01
  1.229494e+01    2.337484e+01
  1.230012e+01    2.190575e+01
  1.230529e+01    2.062269e+01
  1.231046e+01    1.942412e+01
  1.231563e+01    1.853385e+01
  1.232081e+01    1.783079e+01
  1.232598e+01    1.711342e+01
  1.233115e+01    1.643943e+01
  1.233633e+01    1.597276e+01
  1.234150e+01    1.572837e+01
  1.234667e+01    1.553882e+01
  1.235185e+01    1.532470e+01
  1.235702e+01    1.501356e+01
  1.236219e+01    1.465124e+01
  1.236736e+01    1.429886e+01
  1.237254e+01    1.409334e+01
  1.237771e+01    1.397170e+01
  1.238288e+01    1.389220e+01
  1.238806e+01    1.364835e+01
  1.239323e+01    1.346564e+01
  1.239840e+01    1.347870e+01
  1.240357e+01    1.353878e+01
  1.240875e+01    1.342270e+01
  1.241392e+01    1.328073e+01
  1.241909e+01    1.308561e+01
  1.242427e+01    1.297090e+01
  1.242944e+01    1.286958e+01
  1.243461e+01    1.302085e+01
  1.243979e+01    1.307754e+01
  1.244496e+01    1.297158e+01
  1.245013e+01    1.267557e+01
  1.245530e+01    1.249464e+01
  1.246048e+01    1.239156e+01
  1.246565e+01    1.252733e+01
  1.247082e+01    1.269101e+01
  1.247600e+01    1.273283e+01
  1.248117e+01    1.268654e+01
  1.248634e+01    1.256628e+01
  1.249151e+01    1.237447e+01
  1.249669e+01    1.229624e+01
  1.250186e+01    1.232635e+01
  1.250703e+01    1.241265e+01
  1.251221e+01    1.239393e+01
  1.251738e+01    1.231142e+01
  1.252255e+01    1.230290e+01
  1.252773e+01    1.226334e+01
  1.253290e+01    1.209433e+01
  1.253807e+01    1.201246e+01
  1.254324e+01    1.214356e+01
  1.254842e+01    1.236220e+01
  1.255359e+01    1.238085e+01
  1.255876e+01    1.236282e+01
  1.256394e+01    1.229936e+01
  1.256911e+01    1.225353e+01
  1.257428e+01    1.220030e+01
  1.257945e+01    1.210354e+01
  1.258463e+01    1.216007e+01
  1.258980e+01    1.217910e+01
  1.259497e+01    1.214706e+01
  1.260015e+01    1.215289e+01
  1.260532e+01    1.217697e+01
  1.261049e+01    1.219304e+01
  1.261567e+01    1.217642e+01
  1.262084e+01    1.195133e+01
  1.262601e+01    1.185179e+01
  1.263118e+01    1.180130e+01
  1.263636e+01    1.195116e+01
  1.264153e+01    1.207633e+01
  1.264670e+01    1.219053e+01
  1.265188e+01    1.198781e+01
  1.265705e+01    1.188208e+01
  1.266222e+01    1.183077e+01
  1.266739e+01    1.186950e+01
  1.267257e+01    1.189445e+01
  1.267774e+01    1.200148e+01
  1.268291e+01    1.196072e+01
  1.268809e+01    1.195275e+01
  1.269326e+01    1.193324e+01
  1.269843e+01    1.210365e+01
  1.270361e+01    1.211652e+01
  1.270878e+01    1.210535e+01
  1.271395e+01    1.209544e+01
  1.271912e+01    1.217365e+01
  1.272430e+01    1.210338e+01
  1.272947e+01    1.204313e+01
  1.273464e+01    1.195748e+01
  1.273982e+01    1.192466e+01
  1.274499e+01    1.190672e+01
  1.275016e+01    1.186291e+01
  1.275534e+01    1.189883e+01
  1.276051e+01    1.190340e+01
  1.276568e+01    1.201678e+01
  1.277085e+01    1.193676e+01
  1.277603e+01    1.191269e+01
  1.278120e+01    1.180224e+01
  1.278637e+01    1.178976e+01
  1.279155e+01    1.176325e+01
  1.279672e+01    1.187943e+01
  1.280189e+01    1.194968e+01
  1.280706e+01    1.185639e+01
  1.281224e+01    1.177166e+01
  1.281741e+01    1.173506e+01
  1.282258e+01    1.167296e+01
  1.282776e+01    1.165528e+01
  1.283293e+01    1.170371e+01
  1.283810e+01    1.186618e+01
  1.284328e+01    1.185963e+01
  1.284845e+01    1.166576e+01
  1.285362e+01    1.161322e+01
  1.285879e+01    1.170034e+01
  1.286397e+01    1.168843e+01
  1.286914e+01    1.165579e+01
  1.287431e+01    1.167492e+01
  1.287949e+01    1.179174e+01
  1.288466e+01    1.177783e+01
  1.288983e+01    1.165033e+01
  1.289500e+01    1.140794e+01
  1.290018e+01    1.140132e+01
  1.290535e+01    1.142109e+01
  1.291052e+01    1.149100e+01
  1.291570e+01    1.158110e+01
  1.292087e+01    1.166387e+01
  1.292604e+01    1.174196e+01
  1.293122e+01    1.175173e+01
  1.293639e+01    1.167641e+01
  1.294156e+01    1.154910e+01
  1.294673e+01    1.144662e+01
  1.295191e+01    1.152416e+01
  1.295708e+01    1.155328e+01
  1.296225e+01    1.161327e+01
  1.296743e+01    1.168303e+01
  1.297260e+01    1.172354e+01
  1.297777e+01    1.170447e+01
  1.298294e+01    1.172115e+01
  1.298812e+01    1.175504e+01
  1.299329e+01    1.179037e+01
  1.299846e+01    1.171603e+01
  1.300364e+01    1.153003e+01
  1.300881e+01    1.143239e+01
  1.301398e+01    1.151943e+01
  1.301916e+01    1.165239e+01
  1.302433e+01    1.168466e+01
  1.302950e+01    1.157475e+01
  1.303467e+01    1.141231e+01
  1.303985e+01    1.138207e+01
  1.304502e+01    1.136308e+01
  1.305019e+01    1.150582e+01
  1.305537e+01    1.166929e+01
  1.306054e+01    1.169391e+01
  1.306571e+01    1.157051e+01
  1.307088e+01    1.126487e+01
  1.307606e+01    1.115652e+01
  1.308123e+01    1.127289e+01
  1.308640e+01    1.134730e+01
  1.309158e+01    1.145009e+01
  1.309675e+01    1.137700e+01
  1.310192e+01    1.135716e+01
  1.310710e+01    1.131791e+01
  1.311227e+01    1.142306e+01
  1.311744e+01    1.170293e+01
  1.312261e+01    1.170733e+01
  1.312779e+01    1.155368e+01
  1.313296e+01    1.125687e+01
  1.313813e+01    1.116014e+01
  1.314331e+01    1.124636e+01
  1.314848e+01    1.146725e+01
  1.315365e+01    1.150966e+01
  1.315883e+01    1.141067e+01
  1.316400e+01    1.121922e+01
  1.316917e+01    1.119308e+01
  1.317434e+01    1.110839e+01
  1.317952e+01    1.125174e+01
  1.318469e+01    1.139952e+01
  1.318986e+01    1.160069e+01
  1.319504e+01    1.161278e+01
  1.320021e+01    1.153830e+01
  1.320538e+01    1.140907e+01
  1.321055e+01    1.128476e+01
  1.321573e+01    1.122198e+01
  1.322090e+01    1.120809e+01
  1.322607e+01    1.133892e+01
  1.323125e+01    1.137908e+01
  1.323642e+01    1.122769e+01
  1.324159e+01    1.127485e+01
  1.324677e+01    1.146733e+01
  1.325194e+01    1.150378e+01
  1.325711e+01    1.140239e+01
  1.326228e+01    1.123262e+01
  1.326746e+01    1.133168e+01
  1.327263e+01    1.130388e+01
  1.327780e+01    1.125243e+01
  1.328298e+01    1.119692e+01
  1.328815e+01    1.107210e+01
  1.329332e+01    1.106713e+01
  1.329849e+01    1.106239e+01
  1.330367e+01    1.109455e+01
  1.330884e+01    1.108971e+01
  1.331401e+01    1.109227e+01
  1.331919e+01    1.098805e+01
  1.332436e+01    1.091336e+01
  1.332953e+01    1.104128e+01
  1.333471e+01    1.118705e+01
  1.333988e+01    1.126212e+01
  1.334505e+01    1.116139e+01
  1.335022e+01    1.117392e+01
  1.335540e+01    1.106428e+01
  1.336057e+01    1.104642e+01
  1.336574e+01    1.091857e+01
  1.337092e+01    1.086991e+01
  1.337609e+01    1.098841e+01
  1.338126e+01    1.117817e+01
  1.338643e+01    1.109058e+01
  1.339161e+01    1.099778e+01
  1.339678e+01    1.105548e+01
  1.340195e+01    1.113382e+01
  1.340713e+01    1.114301e+01
  1.341230e+01    1.115424e+01
  1.341747e+01    1.113348e+01
  1.342265e+01    1.100527e+01
  1.342782e+01    1.078229e+01
  1.343299e+01    1.057200e+01
  1.343816e+01    1.062756e+01
  1.344334e+01    1.075878e+01
  1.344851e+01    1.095037e+01
  1.345368e+01    1.108907e+01
  1.345886e+01    1.108652e+01
  1.346403e+01    1.099440e+01
  1.346920e+01    1.084318e+01
  1.347438e+01    1.099871e+01
  1.347955e+01    1.113150e+01
  1.348472e+01    1.116351e+01
  1.348989e+01    1.105143e+01
  1.349507e+01    1.093305e+01
  1.350024e+01    1.085619e+01
  1.350541e+01    1.079353e+01
  1.351059e+01    1.068287e+01
  1.351576e+01    1.063672e+01
  1.352093e+01    1.074499e+01
  1.352610e+01    1.097542e+01
  1.353128e+01    1.115808e+01
  1.353645e+01    1.113282e+01
  1.354162e+01    1.100495e+01
  1.354680e+01    1.092306e+01
  1.355197e+01    1.086878e+01
  1.355714e+01    1.090466e+01
  1.356232e+01    1.099903e+01
  1.356749e+01    1.098809e+01
  1.357266e+01    1.081113e+01
  1.357783e+01    1.087833e+01
  1.358301e+01    1.089601e+01
  1.358818e+01    1.079182e+01
  1.359335e+01    1.070689e+01
  1.359853e+01    1.078366e+01
  1.360370e+01    1.080400e+01
  1.360887e+01    1.091649e+01
  1.361404e+01    1.091442e+01
  1.361922e+01    1.099860e+01
  1.362439e+01    1.082044e+01
  1.362956e+01    1.077986e+01
  1.363474e+01    1.071849e+01
  1.363991e+01    1.076464e+01
  1.364508e+01    1.076966e+01
  1.365026e+01    1.090090e+01
  1.365543e+01    1.089707e+01
  1.366060e+01    1.088530e+01
  1.366577e+01    1.085713e+01
  1.367095e+01    1.095716e+01
  1.367612e+01    1.092300e+01
  1.368129e+01    1.074045e+01
  1.368647e+01    1.054711e+01
  1.369164e+01    1.047244e+01
  1.369681e+01    1.045946e+01
  1.370198e+01    1.053820e+01
  1.370716e+01    1.048647e+01
  1.371233e+01    1.057496e+01
  1.371750e+01    1.056790e+01
  1.372268e+01    1.062142e+01
  1.372785e+01    1.058661e+01
  1.373302e+01    1.067867e+01
  1.373820e+01    1.061192e+01
  1.374337e+01    1.066286e+01
  1.374854e+01    1.069937e+01
  1.375371e+01    1.079886e+01
  1.375889e+01    1.076238e+01
  1.376406e+01    1.072578e+01
  1.376923e+01    1.074268e+01
  1.377441e+01    1.064282e+01
  1.377958e+01    1.056210e+01
  1.378475e+01    1.051886e+01
  1.378992e+01    1.059290e+01
  1.379510e+01    1.060313e+01
  1.380027e+01    1.066848e+01
  1.380544e+01    1.054287e+01
  1.381062e+01    1.052516e+01
  1.381579e+01    1.044061e+01
  1.382096e+01    1.032429e+01
  1.382614e+01    1.044755e+01
  1.383131e+01    1.063904e+01
  1.383648e+01    1.075411e+01
  1.384165e+01    1.070302e+01
  1.384683e+01    1.053964e+01
  1.385200e+01    1.040507e+01
  1.385717e+01    1.039895e+01
  1.386235e+01    1.048055e+01
  1.386752e+01    1.048804e+01
  1.387269e+01    1.052221e+01
  1.387787e+01    1.049572e+01
  1.388304e+01    1.034918e+01
  1.388821e+01    1.035853e+01
  1.389338e+01    1.048987e+01
  1.389856e+01    1.050433e+01
  1.390373e+01    1.049202e+01
  1.390890e+01    1.039086e+01
  1.391408e+01    1.038395e+01
  1.391925e+01    1.045828e+01
  1.392442e+01    1.057254e+01
  1.392959e+01    1.063073e+01
  1.393477e+01    1.067560e+01
  1.393994e+01    1.053330e+01
  1.394511e+01    1.074368e+01
  1.395029e+01    1.073572e+01
  1.395546e+01    1.084784e+01
  1.396063e+01    1.058165e+01
  1.396581e+01    1.044036e+01
  1.397098e+01    1.042048e+01
  1.397615e+01    1.061210e+01
  1.398132e+01    1.056887e+01
  1.398650e+01    1.041569e+01
  1.399167e+01    1.033522e+01
  1.399684e+01    1.032686e+01
  1.400202e+01    1.026795e+01
  1.400719e+01    1.037946e+01
  1.401236e+01    1.037391e+01
  1.401753e+01    1.035187e+01
  1.402271e+01    1.037100e+01
  1.402788e+01    1.039171e+01
  1.403305e+01    1.032583e+01
  1.403823e+01    1.045398e+01
  1.404340e+01    1.052197e+01
  1.404857e+01    1.047936e+01
  1.405375e+01    1.056112e+01
  1.405892e+01    1.057547e+01
  1.406409e+01    1.054086e+01
  1.406926e+01    1.042049e+01
  1.407444e+01    1.038248e+01
  1.407961e+01    1.032057e+01
  1.408478e+01    1.030930e+01
  1.408996e+01    1.045527e+01
  1.409513e+01    1.039515e+01
  1.410030e+01    1.018902e+01
  1.410547e+01    1.009682e+01
  1.411065e+01    1.011281e+01
  1.411582e+01    1.027696e+01
  1.412099e+01    1.034270e+01
  1.412617e+01    1.038473e+01
  1.413134e+01    1.032413e+01
  1.413651e+01    1.028831e+01
  1.414169e+01    1.023629e+01
  1.414686e+01    1.019602e+01
  1.415203e+01    1.028481e+01
  1.415720e+01    1.029130e+01
  1.416238e+01    1.026436e+01
  1.416755e+01    1.008432e+01
  1.417272e+01    1.001583e+01
  1.417790e+01    9.939105e+00
  1.418307e+01    1.001971e+01
  1.418824e+01    9.963554e+00
  1.419342e+01    1.002851e+01
  1.419859e+01    1.013273e+01
  1.420376e+01    1.021522e+01
  1.420893e+01    1.023771e+01
  1.421411e+01    1.021870e+01
  1.421928e+01    1.028674e+01
  1.422445e+01    1.030283e+01
  1.422963e+01    1.020447e+01
  1.423480e+01    1.019783e+01
  1.423997e+01    1.019967e+01
  1.424514e+01    1.023222e+01
  1.425032e+01    1.004950e+01
  1.425549e+01    9.854343e+00
  1.426066e+01    9.769117e+00
  1.426584e+01    9.791295e+00
  1.427101e+01    1.001550e+01
  1.427618e+01    1.013627e+01
  1.428136e+01    1.024909e+01
  1.428653e+01    1.012480e+01
  1.429170e+01    1.011325e+01
  1.429687e+01    1.006266e+01
  1.430205e+01    1.025207e+01
  1.430722e+01    1.021404e+01
  1.431239e+01    1.009210e+01
  1.431757e+01    1.007033e+01
  1.432274e+01    1.018232e+01
  1.432791e+01    1.028736e+01
  1.433308e+01    1.018069e+01
  1.433826e+01    1.006437e+01
  1.434343e+01    1.001124e+01
  1.434860e+01    1.011301e+01
  1.435378e+01    1.018364e+01
  1.435895e+01    1.025112e+01
  1.436412e+01    1.031937e+01
  1.436930e+01    1.017239e+01
  1.437447e+01    9.914530e+00
  1.437964e+01    9.851462e+00
  1.438481e+01    9.937915e+00
  1.438999e+01    1.004115e+01
  1.439516e+01    1.006104e+01
  1.440033e+01    1.016109e+01
  1.440551e+01    1.021206e+01
  1.441068e+01    1.028976e+01
  1.441585e+01    1.020969e+01
  1.442102e+01    1.016602e+01
  1.442620e+01    1.001023e+01
  1.443137e+01    1.019049e+01
  1.443654e+01    1.038025e+01
  1.444172e+01    1.032642e+01
  1.444689e+01    1.023588e+01
  1.445206e+01    1.034597e+01
  1.445724e+01    1.042105e+01
  1.446241e+01    1.023032e+01
  1.446758e+01    1.005234e+01
  1.447275e+01    1.015405e+01
  1.447793e+01    1.014309e+01
  1.448310e+01    1.001833e+01
  1.448827e+01    1.010277e+01
  1.449345e+01    1.023832e+01
  1.449862e+01    1.010722e+01
  1.450379e+01    1.005263e+01
  1.450896e+01    1.028592e+01
  1.451414e+01    1.050843e+01
  1.451931e+01    1.019512e+01
  1.452448e+01    9.895512e+00
  1.452966e+01    9.836577e+00
  1.453483e+01    9.620232e+00
  1.454000e+01    9.447269e+00
  1.454518e+01    9.582078e+00
  1.455035e+01    9.855000e+00
  1.455552e+01    1.011192e+01
  1.456069e+01    1.025036e+01
  1.456587e+01    1.022974e+01
  1.457104e+01    1.014311e+01
  1.457621e+01    9.874632e+00
  1.458139e+01    9.790844e+00
  1.458656e+01    9.910162e+00
  1.459173e+01    1.017733e+01
  1.459691e+01    1.021416e+01
  1.460208e+01    9.941096e+00
  1.460725e+01    9.657987e+00
  1.461242e+01    9.670576e+00
  1.461760e+01    1.004209e+01
  1.462277e+01    1.007228e+01
  1.462794e+01    9.912754e+00
  1.463312e+01    9.649406e+00
  1.463829e+01    9.723489e+00
  1.464346e+01    9.556043e+00
  1.464863e+01    9.657116e+00
  1.465381e+01    9.739549e+00
  1.465898e+01    9.546064e+00
  1.466415e+01    9.659584e+00
  1.466933e+01    9.928065e+00
  1.467450e+01    1.018045e+01
  1.467967e+01    1.000476e+01
  1.468485e+01    9.818667e+00
  1.469002e+01    9.927773e+00
  1.469519e+01    9.952117e+00
  1.470036e+01    1.013177e+01
  1.470554e+01    9.898212e+00
  1.471071e+01    9.750343e+00
  1.471588e+01    9.800366e+00
  1.472106e+01    9.763514e+00
  1.472623e+01    9.814248e+00
  1.473140e+01    9.617096e+00
  1.473657e+01    9.689046e+00
  1.474175e+01    9.853002e+00
  1.474692e+01    1.007217e+01
  1.475209e+01    9.944838e+00
  1.475727e+01    9.647499e+00
  1.476244e+01    9.729049e+00
  1.476761e+01    9.833302e+00
  1.477279e+01    9.990780e+00
  1.477796e+01    9.805380e+00
  1.478313e+01    9.725900e+00
  1.478830e+01    9.618321e+00
  1.479348e+01    9.727227e+00
  1.479865e+01    9.643392e+00
  1.480382e+01    9.872937e+00
  1.480900e+01    9.814366e+00
  1.481417e+01    1.002077e+01
  1.481934e+01    9.896589e+00
  1.482451e+01    9.676507e+00
  1.482969e+01    9.481459e+00
  1.483486e+01    9.994806e+00
  1.484003e+01    1.032304e+01
  1.484521e+01    1.022327e+01
  1.485038e+01    9.902837e+00
  1.485555e+01    9.795982e+00
  1.486073e+01    9.800825e+00
  1.486590e+01    9.887390e+00
  1.487107e+01    9.894874e+00
  1.487624e+01    9.687056e+00
  1.488142e+01    9.796713e+00
  1.488659e+01    9.618339e+00
  1.489176e+01    9.863716e+00
  1.489694e+01    9.862538e+00
  1.490211e+01    9.928479e+00
  1.490728e+01    9.703750e+00
  1.491246e+01    9.878505e+00
  1.491763e+01    9.906320e+00
  1.492280e+01    1.028815e+01
  1.492797e+01    1.039504e+01
  1.493315e+01    1.026302e+01
  1.493832e+01    9.769932e+00
  1.494349e+01    9.622334e+00
  1.494867e+01    9.351510e+00
  1.495384e+01    9.353303e+00
  1.495901e+01    9.372557e+00
  1.496418e+01    9.663604e+00
  1.496936e+01    9.416368e+00
  1.497453e+01    9.482989e+00
  1.497970e+01    9.893353e+00
  1.498488e+01    1.052379e+01
  1.499005e+01    1.037064e+01
  1.499522e+01    1.036520e+01
  1.500040e+01    1.008412e+01
  1.500557e+01    1.016584e+01
  1.501074e+01    1.005956e+01
  1.501591e+01    9.900234e+00
  1.502109e+01    9.875376e+00
  1.502626e+01    1.094091e+01
  1.503143e+01    1.221865e+01
  1.503661e+01    1.238756e+01
  1.504178e+01    1.200523e+01
  1.504695e+01    1.118215e+01
  1.505212e+01    1.055575e+01
  1.505730e+01    1.024142e+01
  1.506247e+01    1.020436e+01
  1.506764e+01    1.017491e+01
  1.507282e+01    9.842033e+00
  1.507799e+01    9.930570e+00
  1.508316e+01    9.919656e+00
  1.508834e+01    9.628038e+00
  1.509351e+01    9.586358e+00
  1.509868e+01    1.006408e+01
  1.510385e+01    1.054657e+01
  1.510903e+01    1.056669e+01
  1.511420e+01    1.064969e+01
  1.511937e+01    1.024474e+01
  1.512455e+01    9.963120e+00
  1.512972e+01    9.872897e+00
  1.513489e+01    9.970844e+00
  1.514006e+01    9.679898e+00
  1.514524e+01    9.301473e+00
  1.515041e+01    9.139773e+00
  1.515558e+01    9.853473e+00
  1.516076e+01    1.040071e+01
  1.516593e+01    1.068749e+01
  1.517110e+01    1.031990e+01
  1.517628e+01    9.292308e+00
  1.518145e+01    9.261313e+00
  1.518662e+01    1.015566e+01
  1.519179e+01    1.113660e+01
  1.519697e+01    1.032710e+01
  1.520214e+01    1.030818e+01
  1.520731e+01    1.099964e+01
  1.521249e+01    1.135481e+01
  1.521766e+01    1.075760e+01
  1.522283e+01    9.999159e+00
  1.522800e+01    1.070867e+01
  1.523318e+01    1.186578e+01
  1.523835e+01    1.207865e+01
  1.524352e+01    1.216864e+01
  1.524870e+01    1.232834e+01
  1.525387e+01    1.374403e+01
  1.525904e+01    1.643785e+01
