# == pyFAI calibration ==
# Distance Sample to Detector: 0.89794922811261 m
# PONI: -1.720e+00, 1.057e-01 m
# Rotations: -0.449497 1.514190 -0.000006 rad
# 
# == Fit2d calibration ==
# Distance Sample-beamCenter: 17622.025 mm
# Center: x=3132.929, y=92289.532 pix
# Tilt: 87.079 deg  TiltPlanRot: 88.590 deg
# 
# Detector Pilatus 300kw	 PixelSize= 1.720e-04, 1.720e-04 m
#    Detector has a mask: True 
#    Detector has a dark current: False 
#    detector has a flat field: False 
# 
# Wavelength: 8.856e-11 m
# Mask applied: from detector
# Dark current applied: False
# Flat field applied: False
# Polarization factor: None
# Normalization factor: 1.0
# --> b_toney_lab6_th3_scan1_0025.xy
#       2th_deg             I 
  2.418691e+01    7.809607e+01
  2.418775e+01    8.297964e+01
  2.418860e+01    8.279734e+01
  2.418944e+01    7.906886e+01
  2.419028e+01    7.504740e+01
  2.419112e+01    7.256644e+01
  2.419196e+01    6.993909e+01
  2.419281e+01    7.067834e+01
  2.419365e+01    6.984031e+01
  2.419449e+01    6.741782e+01
  2.419533e+01    6.683279e+01
  2.419617e+01    6.976102e+01
  2.419702e+01    6.913995e+01
  2.419786e+01    6.696702e+01
  2.419870e+01    6.442850e+01
  2.419954e+01    6.434812e+01
  2.420038e+01    6.472070e+01
  2.420123e+01    6.447223e+01
  2.420207e+01    6.481400e+01
  2.420291e+01    6.533609e+01
  2.420375e+01    6.539291e+01
  2.420459e+01    6.607687e+01
  2.420544e+01    6.704267e+01
  2.420628e+01    6.721064e+01
  2.420712e+01    6.557123e+01
  2.420796e+01    6.469244e+01
  2.420880e+01    6.414898e+01
  2.420965e+01    6.419778e+01
  2.421049e+01    6.408869e+01
  2.421133e+01    6.412799e+01
  2.421217e+01    6.444878e+01
  2.421301e+01    6.515903e+01
  2.421386e+01    6.455559e+01
  2.421470e+01    6.342413e+01
  2.421554e+01    6.230304e+01
  2.421638e+01    6.285399e+01
  2.421722e+01    6.418922e+01
  2.421807e+01    6.389344e+01
  2.421891e+01    6.410630e+01
  2.421975e+01    6.433118e+01
  2.422059e+01    6.523302e+01
  2.422143e+01    6.435347e+01
  2.422228e+01    6.423302e+01
  2.422312e+01    6.323587e+01
  2.422396e+01    6.375399e+01
  2.422480e+01    6.346122e+01
  2.422564e+01    6.337833e+01
  2.422649e+01    6.284119e+01
  2.422733e+01    6.306747e+01
  2.422817e+01    6.371513e+01
  2.422901e+01    6.396294e+01
  2.422985e+01    6.382738e+01
  2.423070e+01    6.442945e+01
  2.423154e+01    6.508295e+01
  2.423238e+01    6.600453e+01
  2.423322e+01    6.622389e+01
  2.423406e+01    6.519111e+01
  2.423491e+01    6.370256e+01
  2.423575e+01    6.221231e+01
  2.423659e+01    6.242883e+01
  2.423743e+01    6.314409e+01
  2.423827e+01    6.324702e+01
  2.423912e+01    6.285465e+01
  2.423996e+01    6.280353e+01
  2.424080e+01    6.354025e+01
  2.424164e+01    6.412224e+01
  2.424249e+01    6.284732e+01
  2.424333e+01    6.240872e+01
  2.424417e+01    6.228617e+01
  2.424501e+01    6.265838e+01
  2.424585e+01    6.226702e+01
  2.424670e+01    6.224184e+01
  2.424754e+01    6.320106e+01
  2.424838e+01    6.378059e+01
  2.424922e+01    6.448121e+01
  2.425006e+01    6.353793e+01
  2.425091e+01    6.307141e+01
  2.425175e+01    6.251111e+01
  2.425259e+01    6.271167e+01
  2.425343e+01    6.324286e+01
  2.425427e+01    6.263320e+01
  2.425512e+01    6.289031e+01
  2.425596e+01    6.258532e+01
  2.425680e+01    6.324370e+01
  2.425764e+01    6.246659e+01
  2.425848e+01    6.229486e+01
  2.425933e+01    6.213831e+01
  2.426017e+01    6.202868e+01
  2.426101e+01    6.297889e+01
  2.426185e+01    6.275483e+01
  2.426269e+01    6.310897e+01
  2.426354e+01    6.306608e+01
  2.426438e+01    6.284098e+01
  2.426522e+01    6.216400e+01
  2.426606e+01    6.131949e+01
  2.426690e+01    6.185649e+01
  2.426775e+01    6.148872e+01
  2.426859e+01    6.179190e+01
  2.426943e+01    6.190379e+01
  2.427027e+01    6.191779e+01
  2.427111e+01    6.190065e+01
  2.427196e+01    6.206284e+01
  2.427280e+01    6.233935e+01
  2.427364e+01    6.258017e+01
  2.427448e+01    6.261431e+01
  2.427532e+01    6.286765e+01
  2.427617e+01    6.316123e+01
  2.427701e+01    6.272099e+01
  2.427785e+01    6.436597e+01
  2.427869e+01    6.449672e+01
  2.427953e+01    6.386972e+01
  2.428038e+01    6.269530e+01
  2.428122e+01    6.252968e+01
  2.428206e+01    6.295704e+01
  2.428290e+01    6.226720e+01
  2.428374e+01    6.270940e+01
  2.428459e+01    6.206631e+01
  2.428543e+01    6.122033e+01
  2.428627e+01    6.117081e+01
  2.428711e+01    6.222463e+01
  2.428795e+01    6.304354e+01
  2.428880e+01    6.329537e+01
  2.428964e+01    6.260479e+01
  2.429048e+01    6.252596e+01
  2.429132e+01    6.260839e+01
  2.429216e+01    6.190389e+01
  2.429301e+01    6.087802e+01
  2.429385e+01    6.014137e+01
  2.429469e+01    6.035390e+01
  2.429553e+01    6.044862e+01
  2.429637e+01    6.103664e+01
  2.429722e+01    6.130996e+01
  2.429806e+01    6.182227e+01
  2.429890e+01    6.098185e+01
  2.429974e+01    6.123768e+01
  2.430058e+01    6.120065e+01
  2.430143e+01    6.114965e+01
  2.430227e+01    6.087365e+01
  2.430311e+01    6.217149e+01
  2.430395e+01    6.291280e+01
  2.430479e+01    6.342424e+01
  2.430564e+01    6.229510e+01
  2.430648e+01    6.162386e+01
  2.430732e+01    6.181615e+01
  2.430816e+01    6.198176e+01
  2.430900e+01    6.155179e+01
  2.430985e+01    6.148168e+01
  2.431069e+01    6.160189e+01
  2.431153e+01    6.191330e+01
  2.431237e+01    6.187899e+01
  2.431322e+01    6.163094e+01
  2.431406e+01    6.088142e+01
  2.431490e+01    6.058786e+01
  2.431574e+01    6.096497e+01
  2.431658e+01    6.088251e+01
  2.431743e+01    6.128380e+01
  2.431827e+01    6.191812e+01
  2.431911e+01    6.191458e+01
  2.431995e+01    6.156431e+01
  2.432079e+01    6.075763e+01
  2.432164e+01    6.073447e+01
  2.432248e+01    6.119456e+01
  2.432332e+01    6.231930e+01
  2.432416e+01    6.241558e+01
  2.432500e+01    6.187912e+01
  2.432585e+01    6.053583e+01
  2.432669e+01    6.079252e+01
  2.432753e+01    6.092530e+01
  2.432837e+01    6.096942e+01
  2.432921e+01    6.098908e+01
  2.433006e+01    6.111867e+01
  2.433090e+01    6.135026e+01
  2.433174e+01    6.146000e+01
  2.433258e+01    6.126708e+01
  2.433342e+01    6.166128e+01
  2.433427e+01    6.137250e+01
  2.433511e+01    6.113241e+01
  2.433595e+01    6.090449e+01
  2.433679e+01    6.087994e+01
  2.433763e+01    6.072774e+01
  2.433848e+01    6.086098e+01
  2.433932e+01    6.108481e+01
  2.434016e+01    6.146924e+01
  2.434100e+01    6.106641e+01
  2.434184e+01    6.123930e+01
  2.434269e+01    6.184419e+01
  2.434353e+01    6.252874e+01
  2.434437e+01    6.243956e+01
  2.434521e+01    6.246743e+01
  2.434605e+01    6.201917e+01
  2.434690e+01    6.224816e+01
  2.434774e+01    6.206139e+01
  2.434858e+01    6.163741e+01
  2.434942e+01    6.194010e+01
  2.435026e+01    6.158209e+01
  2.435111e+01    6.126371e+01
  2.435195e+01    6.085049e+01
  2.435279e+01    6.082121e+01
  2.435363e+01    6.102140e+01
  2.435447e+01    6.119382e+01
  2.435532e+01    6.147342e+01
  2.435616e+01    6.128042e+01
  2.435700e+01    6.136671e+01
  2.435784e+01    6.134115e+01
  2.435868e+01    6.132604e+01
  2.435953e+01    6.122708e+01
  2.436037e+01    6.107563e+01
  2.436121e+01    6.113758e+01
  2.436205e+01    6.112519e+01
  2.436289e+01    6.214463e+01
  2.436374e+01    6.399880e+01
  2.436458e+01    6.528639e+01
  2.436542e+01    6.461308e+01
  2.436626e+01    6.230542e+01
  2.436710e+01    6.103203e+01
  2.436795e+01    6.011583e+01
  2.436879e+01    5.956625e+01
  2.436963e+01    5.969905e+01
  2.437047e+01    6.042424e+01
  2.437131e+01    6.057951e+01
  2.437216e+01    6.037603e+01
  2.437300e+01    6.003430e+01
  2.437384e+01    5.995558e+01
  2.437468e+01    5.992916e+01
  2.437552e+01    5.973606e+01
  2.437637e+01    5.927906e+01
  2.437721e+01    5.926638e+01
  2.437805e+01    5.956271e+01
  2.437889e+01    5.993805e+01
  2.437974e+01    5.959624e+01
  2.438058e+01    5.966750e+01
  2.438142e+01    5.984641e+01
  2.438226e+01    5.988131e+01
  2.438310e+01    6.033483e+01
  2.438395e+01    6.054096e+01
  2.438479e+01    6.065007e+01
  2.438563e+01    6.043442e+01
  2.438647e+01    6.035091e+01
  2.438731e+01    6.029893e+01
  2.438816e+01    5.970811e+01
  2.438900e+01    5.989249e+01
  2.438984e+01    6.055421e+01
  2.439068e+01    6.042244e+01
  2.439152e+01    6.030203e+01
  2.439237e+01    6.007869e+01
  2.439321e+01    6.028327e+01
  2.439405e+01    6.038698e+01
  2.439489e+01    6.001073e+01
  2.439573e+01    5.996100e+01
  2.439658e+01    5.969701e+01
  2.439742e+01    5.974675e+01
  2.439826e+01    5.950999e+01
  2.439910e+01    5.947092e+01
  2.439994e+01    5.922596e+01
  2.440079e+01    6.009433e+01
  2.440163e+01    6.036678e+01
  2.440247e+01    6.088066e+01
  2.440331e+01    6.101262e+01
  2.440415e+01    6.124734e+01
  2.440500e+01    6.085572e+01
  2.440584e+01    6.084698e+01
  2.440668e+01    6.021803e+01
  2.440752e+01    5.949126e+01
  2.440836e+01    5.882745e+01
  2.440921e+01    5.866248e+01
  2.441005e+01    5.839229e+01
  2.441089e+01    5.816994e+01
  2.441173e+01    5.817597e+01
  2.441257e+01    5.827022e+01
  2.441342e+01    5.842472e+01
  2.441426e+01    5.903023e+01
  2.441510e+01    5.871311e+01
  2.441594e+01    5.871372e+01
  2.441678e+01    5.884341e+01
  2.441763e+01    5.907924e+01
  2.441847e+01    5.939492e+01
  2.441931e+01    5.989531e+01
  2.442015e+01    6.010868e+01
  2.442099e+01    6.030582e+01
  2.442184e+01    6.012082e+01
  2.442268e+01    6.015423e+01
  2.442352e+01    5.985292e+01
  2.442436e+01    6.004877e+01
  2.442520e+01    5.930804e+01
  2.442605e+01    5.888676e+01
  2.442689e+01    5.883227e+01
  2.442773e+01    5.955279e+01
  2.442857e+01    6.052136e+01
  2.442941e+01    6.053504e+01
  2.443026e+01    6.000272e+01
  2.443110e+01    5.946420e+01
  2.443194e+01    5.949586e+01
  2.443278e+01    5.920880e+01
  2.443362e+01    5.914017e+01
  2.443447e+01    5.955537e+01
  2.443531e+01    5.970826e+01
  2.443615e+01    5.996540e+01
  2.443699e+01    5.946658e+01
  2.443783e+01    5.947937e+01
  2.443868e+01    5.948375e+01
  2.443952e+01    5.961522e+01
  2.444036e+01    5.978043e+01
  2.444120e+01    5.883602e+01
  2.444204e+01    5.812878e+01
  2.444289e+01    5.819623e+01
  2.444373e+01    5.886074e+01
  2.444457e+01    5.990047e+01
  2.444541e+01    6.022329e+01
  2.444625e+01    5.996929e+01
  2.444710e+01    5.961411e+01
  2.444794e+01    5.928896e+01
  2.444878e+01    5.953381e+01
  2.444962e+01    5.996236e+01
  2.445047e+01    6.016621e+01
  2.445131e+01    6.055081e+01
  2.445215e+01    6.087975e+01
  2.445299e+01    6.062600e+01
  2.445383e+01    6.000560e+01
  2.445468e+01    5.944852e+01
  2.445552e+01    5.937247e+01
  2.445636e+01    6.009527e+01
  2.445720e+01    5.939235e+01
  2.445804e+01    5.945520e+01
  2.445889e+01    5.935627e+01
  2.445973e+01    5.941371e+01
  2.446057e+01    5.924874e+01
  2.446141e+01    5.857602e+01
  2.446225e+01    5.868818e+01
  2.446310e+01    5.880308e+01
  2.446394e+01    5.912518e+01
  2.446478e+01    5.964319e+01
  2.446562e+01    5.976710e+01
  2.446646e+01    5.975020e+01
  2.446731e+01    6.026416e+01
  2.446815e+01    5.973154e+01
  2.446899e+01    5.976316e+01
  2.446983e+01    5.970384e+01
  2.447067e+01    6.056509e+01
  2.447152e+01    6.117025e+01
  2.447236e+01    6.042337e+01
  2.447320e+01    5.968971e+01
  2.447404e+01    5.951799e+01
  2.447488e+01    5.989619e+01
  2.447573e+01    6.059172e+01
  2.447657e+01    6.076275e+01
  2.447741e+01    6.065166e+01
  2.447825e+01    6.034410e+01
  2.447909e+01    5.977915e+01
  2.447994e+01    5.937774e+01
  2.448078e+01    5.908841e+01
  2.448162e+01    5.974594e+01
  2.448246e+01    5.994183e+01
  2.448330e+01    6.022929e+01
  2.448415e+01    6.061586e+01
  2.448499e+01    6.083311e+01
  2.448583e+01    6.060347e+01
  2.448667e+01    5.981784e+01
  2.448751e+01    5.958644e+01
  2.448836e+01    5.944474e+01
  2.448920e+01    5.951478e+01
  2.449004e+01    5.930587e+01
  2.449088e+01    5.904582e+01
  2.449172e+01    5.940714e+01
  2.449257e+01    5.952172e+01
  2.449341e+01    5.958938e+01
  2.449425e+01    5.945995e+01
  2.449509e+01    5.905911e+01
  2.449593e+01    5.850826e+01
  2.449678e+01    5.836731e+01
  2.449762e+01    5.792907e+01
  2.449846e+01    5.789547e+01
  2.449930e+01    5.847356e+01
  2.450014e+01    5.915362e+01
  2.450099e+01    6.026455e+01
  2.450183e+01    6.011975e+01
  2.450267e+01    5.973245e+01
  2.450351e+01    5.932679e+01
  2.450435e+01    5.897760e+01
  2.450520e+01    5.923553e+01
  2.450604e+01    5.935220e+01
  2.450688e+01    5.953300e+01
  2.450772e+01    5.986433e+01
  2.450856e+01    5.983458e+01
  2.450941e+01    5.997026e+01
  2.451025e+01    5.981450e+01
  2.451109e+01    5.911620e+01
  2.451193e+01    5.938356e+01
  2.451277e+01    5.930267e+01
  2.451362e+01    6.044792e+01
  2.451446e+01    6.061182e+01
  2.451530e+01    6.038414e+01
  2.451614e+01    5.969021e+01
  2.451698e+01    5.933284e+01
  2.451783e+01    5.952334e+01
  2.451867e+01    6.012654e+01
  2.451951e+01    6.033887e+01
  2.452035e+01    6.081625e+01
  2.452120e+01    6.131090e+01
  2.452204e+01    6.078214e+01
  2.452288e+01    6.010065e+01
  2.452372e+01    5.942600e+01
  2.452456e+01    6.005027e+01
  2.452541e+01    6.061243e+01
  2.452625e+01    6.110022e+01
  2.452709e+01    6.072533e+01
  2.452793e+01    5.984609e+01
  2.452877e+01    5.929648e+01
  2.452962e+01    5.968265e+01
  2.453046e+01    6.016109e+01
  2.453130e+01    6.064682e+01
  2.453214e+01    6.079448e+01
  2.453298e+01    6.088628e+01
  2.453383e+01    6.092583e+01
  2.453467e+01    6.093671e+01
  2.453551e+01    6.088501e+01
  2.453635e+01    6.070620e+01
  2.453719e+01    6.013839e+01
  2.453804e+01    5.996877e+01
  2.453888e+01    6.012576e+01
  2.453972e+01    6.083262e+01
  2.454056e+01    6.170799e+01
  2.454140e+01    6.212471e+01
  2.454225e+01    6.239521e+01
  2.454309e+01    6.202978e+01
  2.454393e+01    6.186908e+01
  2.454477e+01    6.252678e+01
  2.454561e+01    6.309060e+01
  2.454646e+01    6.327655e+01
  2.454730e+01    6.332622e+01
  2.454814e+01    6.341570e+01
  2.454898e+01    6.411316e+01
  2.454982e+01    6.438437e+01
  2.455067e+01    6.456416e+01
  2.455151e+01    6.467683e+01
  2.455235e+01    6.496587e+01
  2.455319e+01    6.499583e+01
  2.455403e+01    6.537305e+01
  2.455488e+01    6.611730e+01
  2.455572e+01    6.609304e+01
  2.455656e+01    6.650694e+01
  2.455740e+01    6.598209e+01
  2.455824e+01    6.621407e+01
  2.455909e+01    6.649661e+01
  2.455993e+01    6.735384e+01
  2.456077e+01    6.772240e+01
  2.456161e+01    6.872540e+01
  2.456245e+01    6.903942e+01
  2.456330e+01    7.019224e+01
  2.456414e+01    7.023603e+01
  2.456498e+01    7.036047e+01
  2.456582e+01    7.053450e+01
  2.456666e+01    7.095268e+01
  2.456751e+01    7.149525e+01
  2.456835e+01    7.184296e+01
  2.456919e+01    7.278375e+01
  2.457003e+01    7.360363e+01
  2.457087e+01    7.412052e+01
  2.457172e+01    7.532891e+01
  2.457256e+01    7.567090e+01
  2.457340e+01    7.727898e+01
  2.457424e+01    7.859385e+01
  2.457508e+01    8.087511e+01
  2.457593e+01    8.256033e+01
  2.457677e+01    8.397013e+01
  2.457761e+01    8.504693e+01
  2.457845e+01    8.733664e+01
  2.457929e+01    8.976846e+01
  2.458014e+01    9.385252e+01
  2.458098e+01    9.803880e+01
  2.458182e+01    1.025180e+02
  2.458266e+01    1.072856e+02
  2.458350e+01    1.123078e+02
  2.458435e+01    1.183736e+02
  2.458519e+01    1.254717e+02
  2.458603e+01    1.345741e+02
  2.458687e+01    1.467243e+02
  2.458772e+01    1.616764e+02
  2.458856e+01    1.817187e+02
  2.458940e+01    2.113624e+02
  2.459024e+01    2.544128e+02
  2.459108e+01    3.167957e+02
  2.459193e+01    4.050232e+02
  2.459277e+01    5.997945e+02
  2.459361e+01    1.005288e+03
  2.459445e+01    1.295923e+03
  2.459529e+01    1.772720e+03
  2.459614e+01    2.340066e+03
  2.459698e+01    3.045287e+03
  2.459782e+01    3.456177e+03
  2.459866e+01    4.222940e+03
  2.459950e+01    4.680409e+03
  2.460035e+01    4.963589e+03
  2.460119e+01    4.962443e+03
  2.460203e+01    5.476673e+03
  2.460287e+01    5.716197e+03
  2.460371e+01    5.814452e+03
  2.460456e+01    5.336414e+03
  2.460540e+01    4.510790e+03
  2.460624e+01    3.385150e+03
  2.460708e+01    2.300130e+03
  2.460792e+01    1.876560e+03
  2.460877e+01    1.258384e+03
  2.460961e+01    9.262133e+02
  2.461045e+01    6.964503e+02
  2.461129e+01    4.796262e+02
  2.461213e+01    3.762724e+02
  2.461298e+01    3.140411e+02
  2.461382e+01    2.635517e+02
  2.461466e+01    2.247060e+02
  2.461550e+01    1.900083e+02
  2.461634e+01    1.704008e+02
  2.461719e+01    1.551610e+02
  2.461803e+01    1.425917e+02
  2.461887e+01    1.335908e+02
  2.461971e+01    1.260222e+02
  2.462055e+01    1.191799e+02
  2.462140e+01    1.128646e+02
  2.462224e+01    1.078875e+02
  2.462308e+01    1.036704e+02
  2.462392e+01    1.004065e+02
  2.462476e+01    9.744537e+01
  2.462561e+01    9.451454e+01
  2.462645e+01    9.186511e+01
  2.462729e+01    8.942016e+01
  2.462813e+01    8.765601e+01
  2.462897e+01    8.592916e+01
  2.462982e+01    8.403118e+01
  2.463066e+01    8.213638e+01
  2.463150e+01    8.073932e+01
  2.463234e+01    7.945223e+01
  2.463318e+01    7.836169e+01
  2.463403e+01    7.730870e+01
  2.463487e+01    7.666154e+01
  2.463571e+01    7.701885e+01
  2.463655e+01    7.670602e+01
  2.463739e+01    7.590571e+01
  2.463824e+01    7.419337e+01
  2.463908e+01    7.364841e+01
  2.463992e+01    7.379789e+01
  2.464076e+01    7.271183e+01
  2.464160e+01    7.221397e+01
  2.464245e+01    7.180569e+01
  2.464329e+01    7.140774e+01
  2.464413e+01    7.034128e+01
  2.464497e+01    6.970533e+01
  2.464581e+01    6.874932e+01
  2.464666e+01    6.871122e+01
  2.464750e+01    6.864059e+01
  2.464834e+01    6.802130e+01
  2.464918e+01    6.769920e+01
  2.465002e+01    6.690408e+01
  2.465087e+01    6.713055e+01
  2.465171e+01    6.641177e+01
  2.465255e+01    6.660742e+01
  2.465339e+01    6.648945e+01
  2.465423e+01    6.653397e+01
  2.465508e+01    6.657503e+01
  2.465592e+01    6.660841e+01
  2.465676e+01    6.592243e+01
  2.465760e+01    6.586233e+01
  2.465845e+01    6.513459e+01
  2.465929e+01    6.558189e+01
  2.466013e+01    6.521323e+01
  2.466097e+01    6.540188e+01
  2.466181e+01    6.537421e+01
  2.466266e+01    6.482163e+01
  2.466350e+01    6.483345e+01
  2.466434e+01    6.472610e+01
  2.466518e+01    6.449436e+01
  2.466602e+01    6.463094e+01
  2.466687e+01    6.364103e+01
  2.466771e+01    6.352805e+01
  2.466855e+01    6.361653e+01
  2.466939e+01    6.399775e+01
  2.467023e+01    6.386272e+01
  2.467108e+01    6.325512e+01
  2.467192e+01    6.311490e+01
  2.467276e+01    6.312133e+01
  2.467360e+01    6.276387e+01
  2.467444e+01    6.284357e+01
  2.467529e+01    6.306178e+01
  2.467613e+01    6.344322e+01
  2.467697e+01    6.431882e+01
  2.467781e+01    6.369816e+01
  2.467865e+01    6.277219e+01
  2.467950e+01    6.190389e+01
  2.468034e+01    6.156144e+01
  2.468118e+01    6.176748e+01
  2.468202e+01    6.293673e+01
  2.468286e+01    6.339787e+01
  2.468371e+01    6.374612e+01
  2.468455e+01    6.285048e+01
  2.468539e+01    6.239988e+01
  2.468623e+01    6.156499e+01
  2.468707e+01    6.152026e+01
  2.468792e+01    6.200206e+01
  2.468876e+01    6.264515e+01
  2.468960e+01    6.259323e+01
  2.469044e+01    6.287420e+01
  2.469128e+01    6.330314e+01
  2.469213e+01    6.356351e+01
  2.469297e+01    6.365489e+01
  2.469381e+01    6.375345e+01
  2.469465e+01    6.275798e+01
  2.469549e+01    6.291980e+01
  2.469634e+01    6.281563e+01
  2.469718e+01    6.301948e+01
  2.469802e+01    6.294707e+01
  2.469886e+01    6.186303e+01
  2.469970e+01    6.121289e+01
  2.470055e+01    6.123755e+01
  2.470139e+01    6.132473e+01
  2.470223e+01    6.150728e+01
  2.470307e+01    6.154774e+01
  2.470391e+01    6.158168e+01
  2.470476e+01    6.150797e+01
  2.470560e+01    6.191850e+01
  2.470644e+01    6.239852e+01
  2.470728e+01    6.294227e+01
  2.470812e+01    6.336673e+01
  2.470897e+01    6.348941e+01
  2.470981e+01    6.300814e+01
  2.471065e+01    6.286002e+01
  2.471149e+01    6.265952e+01
  2.471233e+01    6.282954e+01
  2.471318e+01    6.291166e+01
  2.471402e+01    6.310000e+01
  2.471486e+01    6.355564e+01
  2.471570e+01    6.333666e+01
  2.471654e+01    6.286103e+01
  2.471739e+01    6.261374e+01
  2.471823e+01    6.256741e+01
  2.471907e+01    6.373961e+01
  2.471991e+01    6.447041e+01
  2.472075e+01    6.484399e+01
  2.472160e+01    6.477573e+01
  2.472244e+01    6.449570e+01
  2.472328e+01    6.317327e+01
  2.472412e+01    6.233673e+01
  2.472496e+01    6.107504e+01
  2.472581e+01    6.128532e+01
  2.472665e+01    6.138989e+01
  2.472749e+01    6.169880e+01
  2.472833e+01    6.304581e+01
  2.472918e+01    6.364366e+01
  2.473002e+01    6.427953e+01
  2.473086e+01    6.392742e+01
  2.473170e+01    6.394783e+01
  2.473254e+01    6.434258e+01
  2.473339e+01    6.585006e+01
  2.473423e+01    6.558200e+01
  2.473507e+01    6.479025e+01
  2.473591e+01    6.375650e+01
  2.473675e+01    6.396852e+01
  2.473760e+01    6.444798e+01
  2.473844e+01    6.566917e+01
  2.473928e+01    6.578426e+01
  2.474012e+01    6.484960e+01
  2.474096e+01    6.511298e+01
  2.474181e+01    6.434997e+01
  2.474265e+01    6.512083e+01
  2.474349e+01    6.507104e+01
  2.474433e+01    6.444622e+01
  2.474517e+01    6.357016e+01
  2.474602e+01    6.310469e+01
  2.474686e+01    6.311988e+01
  2.474770e+01    6.413111e+01
  2.474854e+01    6.343308e+01
  2.474938e+01    6.289221e+01
  2.475023e+01    6.245465e+01
  2.475107e+01    6.305871e+01
  2.475191e+01    6.453896e+01
  2.475275e+01    6.569595e+01
  2.475359e+01    6.533223e+01
  2.475444e+01    6.498186e+01
  2.475528e+01    6.448613e+01
  2.475612e+01    6.421063e+01
  2.475696e+01    6.455329e+01
  2.475780e+01    6.346410e+01
  2.475865e+01    6.344465e+01
  2.475949e+01    6.312537e+01
  2.476033e+01    6.150050e+01
  2.476117e+01    6.149340e+01
  2.476201e+01    6.106462e+01
  2.476286e+01    6.142076e+01
  2.476370e+01    6.224910e+01
  2.476454e+01    6.217134e+01
  2.476538e+01    6.279372e+01
  2.476622e+01    6.321300e+01
  2.476707e+01    6.254408e+01
  2.476791e+01    6.251926e+01
  2.476875e+01    6.221488e+01
  2.476959e+01    6.128233e+01
  2.477043e+01    6.088061e+01
  2.477128e+01    6.055684e+01
  2.477212e+01    6.121876e+01
  2.477296e+01    6.122032e+01
  2.477380e+01    6.145158e+01
  2.477464e+01    5.986863e+01
  2.477549e+01    5.924165e+01
  2.477633e+01    5.967061e+01
  2.477717e+01    5.969793e+01
  2.477801e+01    6.003127e+01
  2.477885e+01    5.984988e+01
  2.477970e+01    5.868770e+01
  2.478054e+01    5.794611e+01
  2.478138e+01    5.818924e+01
  2.478222e+01    5.825029e+01
  2.478306e+01    5.900929e+01
  2.478391e+01    5.908186e+01
  2.478475e+01    5.996714e+01
  2.478559e+01    5.907394e+01
  2.478643e+01    5.942439e+01
  2.478727e+01    6.019794e+01
  2.478812e+01    6.063059e+01
  2.478896e+01    6.138601e+01
  2.478980e+01    6.101547e+01
  2.479064e+01    5.905786e+01
  2.479148e+01    5.738290e+01
  2.479233e+01    5.720171e+01
  2.479317e+01    5.694794e+01
  2.479401e+01    5.786240e+01
  2.479485e+01    5.809138e+01
  2.479569e+01    5.769117e+01
  2.479654e+01    5.789458e+01
  2.479738e+01    5.743380e+01
  2.479822e+01    5.787549e+01
  2.479906e+01    5.753916e+01
  2.479991e+01    5.797984e+01
  2.480075e+01    5.799494e+01
  2.480159e+01    5.800848e+01
  2.480243e+01    5.825584e+01
  2.480327e+01    5.736895e+01
  2.480412e+01    5.737549e+01
  2.480496e+01    5.706314e+01
  2.480580e+01    5.699597e+01
  2.480664e+01    5.760202e+01
  2.480748e+01    5.740242e+01
  2.480833e+01    5.708311e+01
  2.480917e+01    5.669678e+01
  2.481001e+01    5.420374e+01
  2.481085e+01    5.400682e+01
  2.481169e+01    5.355840e+01
  2.481254e+01    5.420818e+01
  2.481338e+01    5.461399e+01
  2.481422e+01    5.428346e+01
  2.481506e+01    5.454827e+01
  2.481590e+01    5.528446e+01
  2.481675e+01    5.562290e+01
  2.481759e+01    5.543789e+01
  2.481843e+01    5.568516e+01
  2.481927e+01    5.507911e+01
  2.482011e+01    5.524433e+01
  2.482096e+01    5.398127e+01
  2.482180e+01    5.415522e+01
  2.482264e+01    5.466545e+01
  2.482348e+01    5.483783e+01
  2.482432e+01    5.528909e+01
  2.482517e+01    5.504556e+01
  2.482601e+01    5.538976e+01
  2.482685e+01    5.598097e+01
  2.482769e+01    5.555144e+01
  2.482853e+01    5.409252e+01
  2.482938e+01    5.309896e+01
  2.483022e+01    5.266376e+01
  2.483106e+01    5.464969e+01
  2.483190e+01    5.648489e+01
  2.483274e+01    5.710073e+01
  2.483359e+01    5.735449e+01
  2.483443e+01    5.620670e+01
  2.483527e+01    5.639287e+01
  2.483611e+01    5.639728e+01
  2.483695e+01    5.605934e+01
  2.483780e+01    5.487079e+01
  2.483864e+01    5.377102e+01
  2.483948e+01    5.318188e+01
  2.484032e+01    5.347069e+01
  2.484116e+01    5.499064e+01
  2.484201e+01    5.513838e+01
  2.484285e+01    5.504901e+01
  2.484369e+01    5.424943e+01
  2.484453e+01    5.467006e+01
  2.484537e+01    5.452342e+01
  2.484622e+01    5.410171e+01
  2.484706e+01    5.438825e+01
  2.484790e+01    5.416470e+01
  2.484874e+01    5.433243e+01
  2.484958e+01    5.499157e+01
  2.485043e+01    5.443121e+01
  2.485127e+01    5.485262e+01
  2.485211e+01    5.486245e+01
  2.485295e+01    5.346004e+01
  2.485379e+01    5.255890e+01
  2.485464e+01    5.297649e+01
  2.485548e+01    5.313670e+01
  2.485632e+01    5.550570e+01
  2.485716e+01    5.575000e+01
  2.485800e+01    5.553823e+01
  2.485885e+01    5.468787e+01
  2.485969e+01    5.302680e+01
  2.486053e+01    5.352592e+01
  2.486137e+01    5.289409e+01
  2.486221e+01    5.396738e+01
  2.486306e+01    5.463388e+01
  2.486390e+01    5.449614e+01
  2.486474e+01    5.457875e+01
  2.486558e+01    5.300379e+01
  2.486643e+01    5.215665e+01
  2.486727e+01    5.133424e+01
  2.486811e+01    5.143050e+01
  2.486895e+01    5.176441e+01
  2.486979e+01    5.187655e+01
  2.487064e+01    5.238195e+01
  2.487148e+01    5.324049e+01
  2.487232e+01    5.388964e+01
  2.487316e+01    5.390964e+01
  2.487400e+01    5.319914e+01
  2.487485e+01    5.242384e+01
  2.487569e+01    5.354217e+01
  2.487653e+01    5.468673e+01
  2.487737e+01    5.546704e+01
  2.487821e+01    5.797048e+01
  2.487906e+01    5.677999e+01
  2.487990e+01    5.639315e+01
  2.488074e+01    5.509890e+01
  2.488158e+01    5.431426e+01
  2.488242e+01    5.469072e+01
  2.488327e+01    5.341394e+01
  2.488411e+01    5.198791e+01
  2.488495e+01    5.075342e+01
  2.488579e+01    5.098054e+01
  2.488663e+01    5.249635e+01
  2.488748e+01    5.360798e+01
  2.488832e+01    5.469139e+01
  2.488916e+01    5.441217e+01
  2.489000e+01    5.331288e+01
  2.489084e+01    5.386725e+01
  2.489169e+01    5.405561e+01
  2.489253e+01    5.438558e+01
  2.489337e+01    5.426843e+01
  2.489421e+01    5.410725e+01
  2.489505e+01    5.300206e+01
  2.489590e+01    5.281026e+01
  2.489674e+01    5.267689e+01
  2.489758e+01    5.242969e+01
  2.489842e+01    5.216131e+01
  2.489926e+01    5.213735e+01
  2.490011e+01    5.290349e+01
  2.490095e+01    5.264017e+01
  2.490179e+01    5.262832e+01
  2.490263e+01    5.309221e+01
  2.490347e+01    5.309956e+01
  2.490432e+01    5.365339e+01
  2.490516e+01    5.560807e+01
  2.490600e+01    5.602394e+01
  2.490684e+01    5.670265e+01
  2.490768e+01    5.657253e+01
  2.490853e+01    5.527666e+01
  2.490937e+01    5.523069e+01
  2.491021e+01    5.422071e+01
  2.491105e+01    5.231390e+01
  2.491189e+01    5.096066e+01
  2.491274e+01    4.985512e+01
  2.491358e+01    4.868473e+01
  2.491442e+01    4.945094e+01
  2.491526e+01    5.038666e+01
  2.491610e+01    5.141320e+01
  2.491695e+01    5.284880e+01
  2.491779e+01    5.220388e+01
  2.491863e+01    5.068496e+01
  2.491947e+01    5.085378e+01
  2.492031e+01    5.128292e+01
  2.492116e+01    5.347786e+01
  2.492200e+01    5.440163e+01
  2.492284e+01    5.465117e+01
  2.492368e+01    5.491982e+01
  2.492452e+01    5.410775e+01
  2.492537e+01    5.323176e+01
  2.492621e+01    5.197050e+01
  2.492705e+01    5.127485e+01
  2.492789e+01    5.117754e+01
  2.492873e+01    5.179298e+01
  2.492958e+01    5.242757e+01
  2.493042e+01    5.261194e+01
  2.493126e+01    5.300097e+01
  2.493210e+01    5.240515e+01
  2.493294e+01    5.023559e+01
  2.493379e+01    4.916343e+01
  2.493463e+01    4.830988e+01
  2.493547e+01    4.825562e+01
  2.493631e+01    5.033939e+01
  2.493716e+01    5.140876e+01
  2.493800e+01    5.260956e+01
  2.493884e+01    5.399127e+01
  2.493968e+01    5.418444e+01
  2.494052e+01    5.388414e+01
  2.494137e+01    5.313599e+01
  2.494221e+01    5.103630e+01
  2.494305e+01    4.957211e+01
  2.494389e+01    4.950125e+01
  2.494473e+01    5.039633e+01
  2.494558e+01    5.174768e+01
  2.494642e+01    5.124809e+01
  2.494726e+01    5.295996e+01
  2.494810e+01    5.159425e+01
  2.494894e+01    5.129168e+01
  2.494979e+01    5.244105e+01
  2.495063e+01    5.085373e+01
  2.495147e+01    5.261566e+01
  2.495231e+01    5.369086e+01
  2.495315e+01    5.235049e+01
  2.495400e+01    5.376822e+01
  2.495484e+01    5.301758e+01
  2.495568e+01    5.272189e+01
  2.495652e+01    5.477769e+01
  2.495736e+01    5.440609e+01
  2.495821e+01    5.500129e+01
  2.495905e+01    5.449730e+01
  2.495989e+01    5.376200e+01
  2.496073e+01    5.371500e+01
  2.496157e+01    5.432970e+01
  2.496242e+01    5.547529e+01
  2.496326e+01    5.409836e+01
  2.496410e+01    5.391180e+01
  2.496494e+01    5.255105e+01
  2.496578e+01    5.304256e+01
  2.496663e+01    5.358581e+01
  2.496747e+01    5.314489e+01
  2.496831e+01    5.416088e+01
  2.496915e+01    5.265564e+01
  2.496999e+01    5.201044e+01
  2.497084e+01    5.230604e+01
  2.497168e+01    5.063986e+01
  2.497252e+01    5.295327e+01
  2.497336e+01    5.374428e+01
  2.497420e+01    5.382600e+01
  2.497505e+01    5.442634e+01
  2.497589e+01    5.406511e+01
  2.497673e+01    5.537586e+01
  2.497757e+01    5.491471e+01
  2.497841e+01    5.452970e+01
  2.497926e+01    5.266063e+01
  2.498010e+01    5.153772e+01
  2.498094e+01    5.185268e+01
  2.498178e+01    5.404558e+01
  2.498262e+01    5.574109e+01
  2.498347e+01    5.727472e+01
  2.498431e+01    5.872672e+01
  2.498515e+01    5.865042e+01
  2.498599e+01    5.866597e+01
  2.498683e+01    5.769586e+01
  2.498768e+01    5.604739e+01
  2.498852e+01    5.553228e+01
  2.498936e+01    5.800990e+01
  2.499020e+01    6.110281e+01
  2.499104e+01    6.219545e+01
  2.499189e+01    6.118538e+01
  2.499273e+01    6.076890e+01
  2.499357e+01    5.977501e+01
  2.499441e+01    6.330982e+01
  2.499525e+01    6.613420e+01
  2.499610e+01    6.576197e+01
  2.499694e+01    6.401392e+01
  2.499778e+01    6.297796e+01
  2.499862e+01    6.181775e+01
  2.499946e+01    6.436253e+01
  2.500031e+01    6.634913e+01
  2.500115e+01    6.526035e+01
  2.500199e+01    6.538789e+01
  2.500283e+01    6.446103e+01
  2.500367e+01    6.677888e+01
  2.500452e+01    6.503390e+01
  2.500536e+01    6.475675e+01
  2.500620e+01    6.185555e+01
  2.500704e+01    5.905353e+01
  2.500789e+01    6.092179e+01
  2.500873e+01    6.001649e+01
  2.500957e+01    6.029732e+01
  2.501041e+01    6.093129e+01
  2.501125e+01    6.156900e+01
  2.501210e+01    6.210454e+01
  2.501294e+01    6.045079e+01
  2.501378e+01    6.129170e+01
  2.501462e+01    6.014585e+01
  2.501546e+01    6.150737e+01
  2.501631e+01    6.390706e+01
  2.501715e+01    6.525714e+01
  2.501799e+01    6.806995e+01
  2.501883e+01    6.474104e+01
  2.501967e+01    6.032735e+01
  2.502052e+01    5.515170e+01
  2.502136e+01    5.028406e+01
  2.502220e+01    5.183155e+01
  2.502304e+01    4.893018e+01
  2.502388e+01    4.763772e+01
  2.502473e+01    4.873968e+01
  2.502557e+01    4.791909e+01
  2.502641e+01    5.117059e+01
  2.502725e+01    5.569623e+01
  2.502809e+01    5.658964e+01
  2.502894e+01    5.758536e+01
  2.502978e+01    5.735379e+01
  2.503062e+01    5.441650e+01
  2.503146e+01    5.443176e+01
  2.503230e+01    5.279357e+01
  2.503315e+01    5.034823e+01
  2.503399e+01    4.852645e+01
  2.503483e+01    4.771689e+01
  2.503567e+01    4.762776e+01
  2.503651e+01    5.526772e+01
  2.503736e+01    6.167019e+01
  2.503820e+01    6.744579e+01
  2.503904e+01    6.901488e+01
  2.503988e+01    6.926358e+01
  2.504072e+01    6.522911e+01
  2.504157e+01    6.056860e+01
  2.504241e+01    6.157225e+01
  2.504325e+01    5.352581e+01
  2.504409e+01    5.091784e+01
  2.504493e+01    5.172292e+01
  2.504578e+01    5.421495e+01
  2.504662e+01    6.438207e+01
  2.504746e+01    6.573975e+01
  2.504830e+01    6.080938e+01
