# == pyFAI calibration ==
# Distance Sample to Detector: 0.7940650855747703 m
# PONI: 2.315e+00, -4.375e-01 m
# Rotations: -0.203527 -0.493645 0.000022 rad
# 
# == Fit2d calibration ==
# Distance Sample-beamCenter: 920.724 mm
# Center: x=-1590.751, y=10923.912 pix
# Tilt: 30.409 deg  TiltPlanRot: -69.412 deg
# 
# Detector Pilatus 300kw	 PixelSize= 1.720e-04, 1.720e-04 m
#    Detector has a mask: True 
#    Detector has a dark current: False 
#    detector has a flat field: False 
# 
# Wavelength: 8.856e-11 m
# Mask applied: from detector
# Dark current applied: False
# Flat field applied: False
# Polarization factor: None
# Normalization factor: 1.0
# --> b_toney_lab6_th3_scan1_0048.xy
#       2th_deg             I 
  4.120658e+01    1.846893e+02
  4.120695e+01    1.875325e+02
  4.120732e+01    1.885225e+02
  4.120769e+01    1.859595e+02
  4.120806e+01    1.740303e+02
  4.120843e+01    1.664279e+02
  4.120880e+01    1.633642e+02
  4.120917e+01    1.601289e+02
  4.120954e+01    1.655935e+02
  4.120991e+01    1.672671e+02
  4.121028e+01    1.643690e+02
  4.121065e+01    1.584599e+02
  4.121102e+01    1.523331e+02
  4.121139e+01    1.497559e+02
  4.121176e+01    1.458852e+02
  4.121213e+01    1.430833e+02
  4.121250e+01    1.425524e+02
  4.121287e+01    1.424809e+02
  4.121324e+01    1.475126e+02
  4.121361e+01    1.486325e+02
  4.121398e+01    1.524296e+02
  4.121435e+01    1.551975e+02
  4.121472e+01    1.534510e+02
  4.121509e+01    1.548571e+02
  4.121546e+01    1.555755e+02
  4.121583e+01    1.547892e+02
  4.121620e+01    1.520064e+02
  4.121657e+01    1.467820e+02
  4.121694e+01    1.426340e+02
  4.121731e+01    1.440965e+02
  4.121768e+01    1.428647e+02
  4.121805e+01    1.419729e+02
  4.121842e+01    1.425545e+02
  4.121879e+01    1.396378e+02
  4.121916e+01    1.377231e+02
  4.121953e+01    1.379567e+02
  4.121990e+01    1.378952e+02
  4.122027e+01    1.405789e+02
  4.122064e+01    1.407254e+02
  4.122101e+01    1.415376e+02
  4.122138e+01    1.397742e+02
  4.122175e+01    1.400410e+02
  4.122212e+01    1.417724e+02
  4.122249e+01    1.406317e+02
  4.122286e+01    1.409481e+02
  4.122323e+01    1.399832e+02
  4.122360e+01    1.388510e+02
  4.122397e+01    1.391019e+02
  4.122434e+01    1.405344e+02
  4.122471e+01    1.405800e+02
  4.122508e+01    1.410809e+02
  4.122545e+01    1.407723e+02
  4.122582e+01    1.414787e+02
  4.122619e+01    1.393423e+02
  4.122656e+01    1.400154e+02
  4.122693e+01    1.389226e+02
  4.122730e+01    1.395420e+02
  4.122767e+01    1.415071e+02
  4.122804e+01    1.404920e+02
  4.122841e+01    1.387670e+02
  4.122878e+01    1.374243e+02
  4.122915e+01    1.371304e+02
  4.122952e+01    1.387259e+02
  4.122989e+01    1.391088e+02
  4.123026e+01    1.388269e+02
  4.123063e+01    1.391577e+02
  4.123100e+01    1.382485e+02
  4.123137e+01    1.384796e+02
  4.123174e+01    1.392238e+02
  4.123211e+01    1.384090e+02
  4.123248e+01    1.384893e+02
  4.123285e+01    1.389714e+02
  4.123322e+01    1.372891e+02
  4.123359e+01    1.375985e+02
  4.123396e+01    1.370112e+02
  4.123433e+01    1.358679e+02
  4.123470e+01    1.390938e+02
  4.123507e+01    1.400510e+02
  4.123544e+01    1.410158e+02
  4.123581e+01    1.421845e+02
  4.123618e+01    1.430266e+02
  4.123655e+01    1.438643e+02
  4.123692e+01    1.429888e+02
  4.123729e+01    1.407644e+02
  4.123766e+01    1.420269e+02
  4.123803e+01    1.407996e+02
  4.123840e+01    1.402627e+02
  4.123877e+01    1.391794e+02
  4.123914e+01    1.370222e+02
  4.123951e+01    1.384223e+02
  4.123988e+01    1.398710e+02
  4.124025e+01    1.406738e+02
  4.124062e+01    1.407673e+02
  4.124099e+01    1.390627e+02
  4.124136e+01    1.395845e+02
  4.124173e+01    1.379532e+02
  4.124210e+01    1.390346e+02
  4.124247e+01    1.390037e+02
  4.124284e+01    1.369151e+02
  4.124321e+01    1.355764e+02
  4.124358e+01    1.364593e+02
  4.124395e+01    1.369660e+02
  4.124432e+01    1.382462e+02
  4.124469e+01    1.372162e+02
  4.124506e+01    1.359679e+02
  4.124543e+01    1.351858e+02
  4.124580e+01    1.355645e+02
  4.124617e+01    1.350551e+02
  4.124654e+01    1.369751e+02
  4.124691e+01    1.377543e+02
  4.124728e+01    1.398100e+02
  4.124765e+01    1.389879e+02
  4.124802e+01    1.373116e+02
  4.124839e+01    1.357517e+02
  4.124876e+01    1.366871e+02
  4.124913e+01    1.371191e+02
  4.124950e+01    1.386903e+02
  4.124987e+01    1.366395e+02
  4.125024e+01    1.346984e+02
  4.125061e+01    1.355749e+02
  4.125098e+01    1.361841e+02
  4.125135e+01    1.389123e+02
  4.125172e+01    1.402628e+02
  4.125209e+01    1.379656e+02
  4.125246e+01    1.383909e+02
  4.125283e+01    1.369735e+02
  4.125320e+01    1.370834e+02
  4.125357e+01    1.373643e+02
  4.125394e+01    1.379684e+02
  4.125431e+01    1.377980e+02
  4.125468e+01    1.377168e+02
  4.125505e+01    1.361058e+02
  4.125542e+01    1.354324e+02
  4.125579e+01    1.339753e+02
  4.125616e+01    1.330079e+02
  4.125653e+01    1.332193e+02
  4.125690e+01    1.326842e+02
  4.125727e+01    1.337729e+02
  4.125764e+01    1.342541e+02
  4.125801e+01    1.355519e+02
  4.125838e+01    1.364129e+02
  4.125875e+01    1.380492e+02
  4.125912e+01    1.378191e+02
  4.125949e+01    1.363514e+02
  4.125986e+01    1.355989e+02
  4.126023e+01    1.342272e+02
  4.126060e+01    1.345639e+02
  4.126097e+01    1.348124e+02
  4.126134e+01    1.341166e+02
  4.126171e+01    1.339268e+02
  4.126208e+01    1.337780e+02
  4.126245e+01    1.338729e+02
  4.126282e+01    1.335437e+02
  4.126319e+01    1.349812e+02
  4.126356e+01    1.346654e+02
  4.126393e+01    1.362776e+02
  4.126430e+01    1.354262e+02
  4.126467e+01    1.350357e+02
  4.126504e+01    1.355680e+02
  4.126541e+01    1.356104e+02
  4.126578e+01    1.355570e+02
  4.126615e+01    1.364986e+02
  4.126652e+01    1.363555e+02
  4.126689e+01    1.374503e+02
  4.126726e+01    1.379392e+02
  4.126763e+01    1.371983e+02
  4.126800e+01    1.371560e+02
  4.126837e+01    1.374670e+02
  4.126874e+01    1.380872e+02
  4.126911e+01    1.387252e+02
  4.126948e+01    1.379927e+02
  4.126985e+01    1.369973e+02
  4.127022e+01    1.366157e+02
  4.127059e+01    1.355924e+02
  4.127096e+01    1.345905e+02
  4.127133e+01    1.362302e+02
  4.127170e+01    1.369623e+02
  4.127207e+01    1.369715e+02
  4.127244e+01    1.384543e+02
  4.127281e+01    1.387429e+02
  4.127318e+01    1.388926e+02
  4.127355e+01    1.393010e+02
  4.127392e+01    1.383858e+02
  4.127429e+01    1.367890e+02
  4.127466e+01    1.367788e+02
  4.127503e+01    1.369681e+02
  4.127540e+01    1.379676e+02
  4.127577e+01    1.376552e+02
  4.127614e+01    1.372575e+02
  4.127651e+01    1.352520e+02
  4.127688e+01    1.352495e+02
  4.127725e+01    1.354989e+02
  4.127762e+01    1.345077e+02
  4.127799e+01    1.354476e+02
  4.127836e+01    1.348814e+02
  4.127873e+01    1.339356e+02
  4.127910e+01    1.336716e+02
  4.127947e+01    1.354469e+02
  4.127984e+01    1.362620e+02
  4.128021e+01    1.376441e+02
  4.128058e+01    1.372356e+02
  4.128095e+01    1.372310e+02
  4.128132e+01    1.378295e+02
  4.128169e+01    1.376366e+02
  4.128206e+01    1.376169e+02
  4.128243e+01    1.370438e+02
  4.128280e+01    1.354366e+02
  4.128317e+01    1.352288e+02
  4.128354e+01    1.348765e+02
  4.128391e+01    1.342753e+02
  4.128428e+01    1.328777e+02
  4.128465e+01    1.316824e+02
  4.128502e+01    1.322185e+02
  4.128539e+01    1.349926e+02
  4.128576e+01    1.381458e+02
  4.128613e+01    1.386951e+02
  4.128650e+01    1.373334e+02
  4.128687e+01    1.344107e+02
  4.128724e+01    1.343792e+02
  4.128761e+01    1.329691e+02
  4.128798e+01    1.338282e+02
  4.128835e+01    1.341293e+02
  4.128872e+01    1.347121e+02
  4.128909e+01    1.359472e+02
  4.128946e+01    1.352304e+02
  4.128983e+01    1.360050e+02
  4.129020e+01    1.361325e+02
  4.129057e+01    1.369865e+02
  4.129094e+01    1.377800e+02
  4.129131e+01    1.383413e+02
  4.129168e+01    1.392829e+02
  4.129205e+01    1.386587e+02
  4.129242e+01    1.378992e+02
  4.129279e+01    1.364982e+02
  4.129316e+01    1.367291e+02
  4.129353e+01    1.383557e+02
  4.129390e+01    1.380999e+02
  4.129427e+01    1.374870e+02
  4.129464e+01    1.359264e+02
  4.129501e+01    1.355715e+02
  4.129538e+01    1.364140e+02
  4.129575e+01    1.363032e+02
  4.129612e+01    1.338946e+02
  4.129649e+01    1.330823e+02
  4.129686e+01    1.335930e+02
  4.129723e+01    1.347478e+02
  4.129760e+01    1.377412e+02
  4.129797e+01    1.387647e+02
  4.129834e+01    1.385288e+02
  4.129871e+01    1.380567e+02
  4.129908e+01    1.374653e+02
  4.129945e+01    1.372388e+02
  4.129982e+01    1.375885e+02
  4.130019e+01    1.372874e+02
  4.130056e+01    1.374228e+02
  4.130093e+01    1.384890e+02
  4.130130e+01    1.382275e+02
  4.130167e+01    1.363616e+02
  4.130204e+01    1.346295e+02
  4.130241e+01    1.327339e+02
  4.130278e+01    1.321016e+02
  4.130315e+01    1.334668e+02
  4.130352e+01    1.358279e+02
  4.130389e+01    1.379833e+02
  4.130426e+01    1.391121e+02
  4.130463e+01    1.380147e+02
  4.130500e+01    1.368150e+02
  4.130537e+01    1.361368e+02
  4.130574e+01    1.371471e+02
  4.130611e+01    1.383503e+02
  4.130648e+01    1.390430e+02
  4.130685e+01    1.367627e+02
  4.130722e+01    1.346743e+02
  4.130759e+01    1.347822e+02
  4.130796e+01    1.352524e+02
  4.130833e+01    1.374463e+02
  4.130870e+01    1.376494e+02
  4.130907e+01    1.373612e+02
  4.130944e+01    1.366032e+02
  4.130981e+01    1.357702e+02
  4.131018e+01    1.353237e+02
  4.131055e+01    1.353460e+02
  4.131092e+01    1.339982e+02
  4.131129e+01    1.346545e+02
  4.131166e+01    1.353208e+02
  4.131203e+01    1.362027e+02
  4.131240e+01    1.372946e+02
  4.131277e+01    1.382033e+02
  4.131314e+01    1.389129e+02
  4.131351e+01    1.386502e+02
  4.131388e+01    1.382131e+02
  4.131425e+01    1.376428e+02
  4.131462e+01    1.372378e+02
  4.131499e+01    1.374211e+02
  4.131535e+01    1.380837e+02
  4.131572e+01    1.391375e+02
  4.131609e+01    1.410220e+02
  4.131646e+01    1.407036e+02
  4.131683e+01    1.402401e+02
  4.131720e+01    1.378641e+02
  4.131757e+01    1.370001e+02
  4.131794e+01    1.382425e+02
  4.131831e+01    1.378531e+02
  4.131868e+01    1.385273e+02
  4.131905e+01    1.386496e+02
  4.131942e+01    1.373160e+02
  4.131979e+01    1.377682e+02
  4.132016e+01    1.396564e+02
  4.132053e+01    1.396486e+02
  4.132090e+01    1.394460e+02
  4.132127e+01    1.376159e+02
  4.132164e+01    1.375569e+02
  4.132201e+01    1.383844e+02
  4.132238e+01    1.393909e+02
  4.132275e+01    1.392722e+02
  4.132312e+01    1.400717e+02
  4.132349e+01    1.408642e+02
  4.132386e+01    1.416150e+02
  4.132423e+01    1.438969e+02
  4.132460e+01    1.433891e+02
  4.132497e+01    1.435226e+02
  4.132534e+01    1.429030e+02
  4.132571e+01    1.407388e+02
  4.132608e+01    1.415287e+02
  4.132645e+01    1.417515e+02
  4.132682e+01    1.414396e+02
  4.132719e+01    1.415335e+02
  4.132756e+01    1.417919e+02
  4.132793e+01    1.410511e+02
  4.132830e+01    1.403899e+02
  4.132867e+01    1.418896e+02
  4.132904e+01    1.443726e+02
  4.132941e+01    1.458640e+02
  4.132978e+01    1.469660e+02
  4.133015e+01    1.455704e+02
  4.133052e+01    1.430187e+02
  4.133089e+01    1.413504e+02
  4.133126e+01    1.411075e+02
  4.133163e+01    1.397259e+02
  4.133200e+01    1.411677e+02
  4.133237e+01    1.420167e+02
  4.133274e+01    1.416268e+02
  4.133311e+01    1.425272e+02
  4.133348e+01    1.432180e+02
  4.133385e+01    1.450359e+02
  4.133422e+01    1.446951e+02
  4.133459e+01    1.451135e+02
  4.133496e+01    1.460532e+02
  4.133533e+01    1.448474e+02
  4.133570e+01    1.454130e+02
  4.133607e+01    1.455679e+02
  4.133644e+01    1.455391e+02
  4.133681e+01    1.471179e+02
  4.133718e+01    1.467255e+02
  4.133755e+01    1.450816e+02
  4.133792e+01    1.445075e+02
  4.133829e+01    1.431676e+02
  4.133866e+01    1.434870e+02
  4.133903e+01    1.448636e+02
  4.133940e+01    1.453302e+02
  4.133977e+01    1.460656e+02
  4.134014e+01    1.463967e+02
  4.134051e+01    1.473934e+02
  4.134088e+01    1.464488e+02
  4.134125e+01    1.479687e+02
  4.134162e+01    1.477902e+02
  4.134199e+01    1.467648e+02
  4.134236e+01    1.475457e+02
  4.134273e+01    1.464079e+02
  4.134310e+01    1.478539e+02
  4.134347e+01    1.484423e+02
  4.134384e+01    1.494056e+02
  4.134421e+01    1.499122e+02
  4.134458e+01    1.510434e+02
  4.134495e+01    1.507480e+02
  4.134532e+01    1.522640e+02
  4.134569e+01    1.527608e+02
  4.134606e+01    1.523949e+02
  4.134643e+01    1.524328e+02
  4.134680e+01    1.533330e+02
  4.134717e+01    1.541915e+02
  4.134754e+01    1.562166e+02
  4.134791e+01    1.560304e+02
  4.134828e+01    1.553913e+02
  4.134865e+01    1.548567e+02
  4.134902e+01    1.555509e+02
  4.134939e+01    1.553037e+02
  4.134976e+01    1.570636e+02
  4.135013e+01    1.594446e+02
  4.135050e+01    1.606276e+02
  4.135087e+01    1.637536e+02
  4.135124e+01    1.631933e+02
  4.135161e+01    1.633942e+02
  4.135198e+01    1.648807e+02
  4.135235e+01    1.653694e+02
  4.135272e+01    1.683386e+02
  4.135309e+01    1.704580e+02
  4.135346e+01    1.714697e+02
  4.135383e+01    1.726671e+02
  4.135420e+01    1.748406e+02
  4.135457e+01    1.755983e+02
  4.135494e+01    1.766086e+02
  4.135531e+01    1.769432e+02
  4.135568e+01    1.776091e+02
  4.135605e+01    1.801743e+02
  4.135642e+01    1.829048e+02
  4.135679e+01    1.852764e+02
  4.135716e+01    1.866767e+02
  4.135753e+01    1.889399e+02
  4.135790e+01    1.900805e+02
  4.135827e+01    1.928849e+02
  4.135864e+01    1.955839e+02
  4.135901e+01    1.979717e+02
  4.135938e+01    2.033781e+02
  4.135975e+01    2.060095e+02
  4.136012e+01    2.086663e+02
  4.136049e+01    2.119895e+02
  4.136086e+01    2.169413e+02
  4.136123e+01    2.216936e+02
  4.136160e+01    2.281072e+02
  4.136197e+01    2.362850e+02
  4.136234e+01    2.428876e+02
  4.136271e+01    2.497769e+02
  4.136308e+01    2.572376e+02
  4.136345e+01    2.630780e+02
  4.136382e+01    2.708290e+02
  4.136419e+01    2.801860e+02
  4.136456e+01    2.928668e+02
  4.136493e+01    3.048493e+02
  4.136530e+01    3.222845e+02
  4.136567e+01    3.420164e+02
  4.136604e+01    3.618400e+02
  4.136641e+01    3.827950e+02
  4.136678e+01    4.082574e+02
  4.136715e+01    4.453414e+02
  4.136752e+01    4.886701e+02
  4.136789e+01    5.154993e+02
  4.136826e+01    5.664080e+02
  4.136863e+01    6.637180e+02
  4.136900e+01    7.674050e+02
  4.136937e+01    8.473155e+02
  4.136974e+01    9.328682e+02
  4.137011e+01    1.003852e+03
  4.137048e+01    1.190200e+03
  4.137085e+01    1.360945e+03
  4.137122e+01    1.443010e+03
  4.137159e+01    1.570325e+03
  4.137196e+01    1.814732e+03
  4.137233e+01    1.987104e+03
  4.137270e+01    2.133481e+03
  4.137307e+01    2.243163e+03
  4.137344e+01    2.438144e+03
  4.137381e+01    2.712348e+03
  4.137418e+01    2.933905e+03
  4.137455e+01    3.246474e+03
  4.137492e+01    3.535791e+03
  4.137529e+01    3.777025e+03
  4.137566e+01    4.064083e+03
  4.137603e+01    4.169446e+03
  4.137640e+01    4.412485e+03
  4.137677e+01    4.874916e+03
  4.137714e+01    5.179972e+03
  4.137751e+01    5.322272e+03
  4.137788e+01    6.701712e+03
  4.137825e+01    7.181250e+03
  4.137862e+01    7.193817e+03
  4.137899e+01    7.655013e+03
  4.137936e+01    9.499130e+03
  4.137973e+01    8.562135e+03
  4.138010e+01    8.466749e+03
  4.138047e+01    8.301853e+03
  4.138084e+01    5.727340e+03
  4.138121e+01    5.128556e+03
  4.138158e+01    4.908809e+03
  4.138195e+01    4.694236e+03
  4.138232e+01    3.669932e+03
  4.138269e+01    3.579963e+03
  4.138306e+01    3.673212e+03
  4.138343e+01    4.393675e+03
  4.138380e+01    4.376738e+03
  4.138417e+01    4.231189e+03
  4.138454e+01    3.920700e+03
  4.138491e+01    2.712539e+03
  4.138528e+01    1.431945e+03
  4.138565e+01    1.188101e+03
  4.138602e+01    1.096465e+03
  4.138639e+01    9.671060e+02
  4.138676e+01    8.220259e+02
  4.138713e+01    7.169212e+02
  4.138750e+01    6.252683e+02
  4.138787e+01    5.377401e+02
  4.138824e+01    4.807549e+02
  4.138861e+01    4.351414e+02
  4.138898e+01    3.978128e+02
  4.138935e+01    3.692852e+02
  4.138972e+01    3.446192e+02
  4.139009e+01    3.244968e+02
  4.139046e+01    3.079930e+02
  4.139083e+01    2.958896e+02
  4.139120e+01    2.827874e+02
  4.139157e+01    2.698834e+02
  4.139194e+01    2.620231e+02
  4.139231e+01    2.524044e+02
  4.139268e+01    2.451096e+02
  4.139305e+01    2.382815e+02
  4.139342e+01    2.328785e+02
  4.139379e+01    2.285352e+02
  4.139416e+01    2.231804e+02
  4.139453e+01    2.198465e+02
  4.139490e+01    2.163099e+02
  4.139527e+01    2.132032e+02
  4.139564e+01    2.109494e+02
  4.139601e+01    2.073864e+02
  4.139638e+01    2.041126e+02
  4.139675e+01    2.007297e+02
  4.139712e+01    1.960980e+02
  4.139749e+01    1.943621e+02
  4.139786e+01    1.909390e+02
  4.139823e+01    1.880467e+02
  4.139860e+01    1.867406e+02
  4.139897e+01    1.821279e+02
  4.139934e+01    1.794288e+02
  4.139971e+01    1.780637e+02
  4.140008e+01    1.786601e+02
  4.140045e+01    1.808476e+02
  4.140082e+01    1.814219e+02
  4.140119e+01    1.808412e+02
  4.140156e+01    1.781359e+02
  4.140193e+01    1.757748e+02
  4.140230e+01    1.734449e+02
  4.140267e+01    1.714666e+02
  4.140304e+01    1.710666e+02
  4.140341e+01    1.704930e+02
  4.140378e+01    1.718544e+02
  4.140415e+01    1.723404e+02
  4.140452e+01    1.714310e+02
  4.140489e+01    1.717907e+02
  4.140526e+01    1.705569e+02
  4.140563e+01    1.690268e+02
  4.140600e+01    1.687557e+02
  4.140637e+01    1.665338e+02
  4.140674e+01    1.647324e+02
  4.140711e+01    1.650404e+02
  4.140748e+01    1.660662e+02
  4.140785e+01    1.679237e+02
  4.140822e+01    1.673784e+02
  4.140859e+01    1.659044e+02
  4.140896e+01    1.637317e+02
  4.140933e+01    1.618266e+02
  4.140970e+01    1.611419e+02
  4.141007e+01    1.595662e+02
  4.141044e+01    1.582780e+02
  4.141081e+01    1.585401e+02
  4.141118e+01    1.581297e+02
  4.141155e+01    1.572270e+02
  4.141192e+01    1.565937e+02
  4.141229e+01    1.568942e+02
  4.141266e+01    1.571868e+02
  4.141303e+01    1.575866e+02
  4.141340e+01    1.566214e+02
  4.141377e+01    1.548616e+02
  4.141414e+01    1.535489e+02
  4.141451e+01    1.545290e+02
  4.141488e+01    1.553991e+02
  4.141525e+01    1.568386e+02
  4.141562e+01    1.570997e+02
  4.141599e+01    1.556423e+02
  4.141636e+01    1.539792e+02
  4.141673e+01    1.546890e+02
  4.141710e+01    1.568548e+02
  4.141747e+01    1.557073e+02
  4.141784e+01    1.539627e+02
  4.141821e+01    1.517029e+02
  4.141858e+01    1.498611e+02
  4.141895e+01    1.491505e+02
  4.141932e+01    1.494549e+02
  4.141969e+01    1.483910e+02
  4.142006e+01    1.485606e+02
  4.142043e+01    1.496221e+02
  4.142080e+01    1.500207e+02
  4.142117e+01    1.521999e+02
  4.142154e+01    1.524978e+02
  4.142191e+01    1.510148e+02
  4.142228e+01    1.507047e+02
  4.142265e+01    1.495499e+02
  4.142302e+01    1.498409e+02
  4.142339e+01    1.500169e+02
  4.142376e+01    1.486151e+02
  4.142413e+01    1.470038e+02
  4.142450e+01    1.453616e+02
  4.142487e+01    1.453663e+02
  4.142524e+01    1.448861e+02
  4.142561e+01    1.447162e+02
  4.142598e+01    1.442667e+02
  4.142635e+01    1.455025e+02
  4.142672e+01    1.461388e+02
  4.142709e+01    1.457480e+02
  4.142746e+01    1.483590e+02
  4.142783e+01    1.467041e+02
  4.142820e+01    1.461459e+02
  4.142857e+01    1.436383e+02
  4.142894e+01    1.425170e+02
  4.142931e+01    1.430501e+02
  4.142968e+01    1.442347e+02
  4.143005e+01    1.462395e+02
  4.143042e+01    1.461902e+02
  4.143079e+01    1.470178e+02
  4.143116e+01    1.476225e+02
  4.143153e+01    1.463192e+02
  4.143190e+01    1.458503e+02
  4.143227e+01    1.433765e+02
  4.143264e+01    1.421944e+02
  4.143301e+01    1.419508e+02
  4.143338e+01    1.425366e+02
  4.143375e+01    1.443537e+02
  4.143412e+01    1.460222e+02
  4.143449e+01    1.470258e+02
  4.143486e+01    1.480369e+02
  4.143523e+01    1.480645e+02
  4.143560e+01    1.469477e+02
  4.143597e+01    1.456437e+02
  4.143634e+01    1.446281e+02
  4.143671e+01    1.433259e+02
  4.143708e+01    1.426948e+02
  4.143745e+01    1.429979e+02
  4.143782e+01    1.440314e+02
  4.143819e+01    1.437599e+02
  4.143856e+01    1.433728e+02
  4.143893e+01    1.414635e+02
  4.143930e+01    1.404513e+02
  4.143967e+01    1.410562e+02
  4.144004e+01    1.418191e+02
  4.144041e+01    1.432316e+02
  4.144078e+01    1.426292e+02
  4.144115e+01    1.408420e+02
  4.144152e+01    1.412386e+02
  4.144189e+01    1.410789e+02
  4.144226e+01    1.419572e+02
  4.144263e+01    1.419658e+02
  4.144300e+01    1.424971e+02
  4.144337e+01    1.427974e+02
  4.144374e+01    1.437711e+02
  4.144411e+01    1.449125e+02
  4.144448e+01    1.435903e+02
  4.144485e+01    1.423606e+02
  4.144522e+01    1.419467e+02
  4.144559e+01    1.422559e+02
  4.144596e+01    1.428229e+02
  4.144633e+01    1.434414e+02
  4.144670e+01    1.430307e+02
  4.144707e+01    1.432464e+02
  4.144744e+01    1.430141e+02
  4.144781e+01    1.436706e+02
  4.144818e+01    1.426163e+02
  4.144855e+01    1.431052e+02
  4.144892e+01    1.435086e+02
  4.144929e+01    1.439074e+02
  4.144966e+01    1.448149e+02
  4.145003e+01    1.420346e+02
  4.145040e+01    1.425822e+02
  4.145077e+01    1.426845e+02
  4.145114e+01    1.432052e+02
  4.145151e+01    1.442860e+02
  4.145188e+01    1.443024e+02
  4.145225e+01    1.442093e+02
  4.145262e+01    1.452903e+02
  4.145299e+01    1.454369e+02
  4.145336e+01    1.453580e+02
  4.145373e+01    1.460194e+02
  4.145410e+01    1.445566e+02
  4.145447e+01    1.428040e+02
  4.145484e+01    1.420584e+02
  4.145521e+01    1.414515e+02
  4.145558e+01    1.420167e+02
  4.145595e+01    1.441694e+02
  4.145632e+01    1.473336e+02
  4.145669e+01    1.483185e+02
  4.145706e+01    1.501056e+02
  4.145743e+01    1.502748e+02
  4.145780e+01    1.501338e+02
  4.145817e+01    1.497233e+02
  4.145854e+01    1.485208e+02
  4.145891e+01    1.468904e+02
  4.145928e+01    1.457260e+02
  4.145965e+01    1.439703e+02
  4.146002e+01    1.423571e+02
  4.146039e+01    1.425062e+02
  4.146076e+01    1.430999e+02
  4.146113e+01    1.445364e+02
  4.146150e+01    1.440229e+02
  4.146187e+01    1.443288e+02
  4.146224e+01    1.441205e+02
  4.146261e+01    1.452633e+02
  4.146298e+01    1.464490e+02
  4.146335e+01    1.453307e+02
  4.146372e+01    1.465296e+02
  4.146409e+01    1.448656e+02
  4.146446e+01    1.438500e+02
  4.146483e+01    1.456126e+02
  4.146520e+01    1.459791e+02
  4.146557e+01    1.469174e+02
  4.146594e+01    1.467047e+02
  4.146631e+01    1.456835e+02
  4.146668e+01    1.434333e+02
  4.146705e+01    1.418451e+02
  4.146742e+01    1.417312e+02
  4.146779e+01    1.425394e+02
  4.146816e+01    1.453546e+02
  4.146853e+01    1.460270e+02
  4.146890e+01    1.450914e+02
  4.146927e+01    1.449410e+02
  4.146964e+01    1.442775e+02
  4.147001e+01    1.449845e+02
  4.147038e+01    1.474329e+02
  4.147075e+01    1.480562e+02
  4.147112e+01    1.466891e+02
  4.147149e+01    1.470484e+02
  4.147186e+01    1.443527e+02
  4.147223e+01    1.437578e+02
  4.147260e+01    1.424508e+02
  4.147297e+01    1.430913e+02
  4.147334e+01    1.424705e+02
  4.147371e+01    1.421315e+02
  4.147408e+01    1.429340e+02
  4.147445e+01    1.424015e+02
  4.147482e+01    1.417107e+02
  4.147519e+01    1.408409e+02
  4.147556e+01    1.409371e+02
  4.147593e+01    1.417830e+02
  4.147630e+01    1.430933e+02
  4.147667e+01    1.425905e+02
  4.147704e+01    1.421346e+02
  4.147741e+01    1.414422e+02
  4.147778e+01    1.390905e+02
  4.147815e+01    1.383151e+02
  4.147852e+01    1.365783e+02
  4.147889e+01    1.342979e+02
  4.147926e+01    1.358625e+02
  4.147963e+01    1.367371e+02
  4.148000e+01    1.404436e+02
  4.148037e+01    1.425435e+02
  4.148074e+01    1.415144e+02
  4.148111e+01    1.424890e+02
  4.148148e+01    1.409039e+02
  4.148185e+01    1.401389e+02
  4.148222e+01    1.414404e+02
  4.148259e+01    1.400792e+02
  4.148296e+01    1.427799e+02
  4.148333e+01    1.443507e+02
  4.148370e+01    1.438807e+02
  4.148407e+01    1.433463e+02
  4.148444e+01    1.407598e+02
  4.148481e+01    1.388775e+02
  4.148518e+01    1.376599e+02
  4.148555e+01    1.391454e+02
  4.148592e+01    1.414469e+02
  4.148629e+01    1.425040e+02
  4.148666e+01    1.446045e+02
  4.148703e+01    1.427646e+02
  4.148740e+01    1.404995e+02
  4.148777e+01    1.381406e+02
  4.148814e+01    1.382727e+02
  4.148851e+01    1.390624e+02
  4.148888e+01    1.393534e+02
  4.148925e+01    1.392247e+02
  4.148962e+01    1.390296e+02
  4.148999e+01    1.372470e+02
  4.149036e+01    1.365856e+02
  4.149073e+01    1.353667e+02
  4.149110e+01    1.345055e+02
  4.149147e+01    1.344120e+02
  4.149184e+01    1.337964e+02
  4.149221e+01    1.349813e+02
  4.149258e+01    1.368614e+02
  4.149295e+01    1.362350e+02
  4.149332e+01    1.350693e+02
  4.149369e+01    1.346230e+02
  4.149406e+01    1.334118e+02
  4.149443e+01    1.348961e+02
  4.149480e+01    1.356221e+02
  4.149517e+01    1.354179e+02
  4.149554e+01    1.347095e+02
  4.149591e+01    1.317079e+02
  4.149628e+01    1.303286e+02
  4.149665e+01    1.293819e+02
  4.149702e+01    1.312542e+02
  4.149739e+01    1.334153e+02
  4.149776e+01    1.341971e+02
  4.149813e+01    1.371902e+02
  4.149850e+01    1.365113e+02
  4.149887e+01    1.378987e+02
  4.149924e+01    1.393688e+02
  4.149961e+01    1.396700e+02
  4.149998e+01    1.366020e+02
  4.150035e+01    1.339191e+02
  4.150072e+01    1.325906e+02
  4.150109e+01    1.319490e+02
  4.150146e+01    1.314399e+02
  4.150183e+01    1.312929e+02
  4.150220e+01    1.301877e+02
  4.150257e+01    1.269379e+02
  4.150294e+01    1.284969e+02
  4.150331e+01    1.298836e+02
  4.150368e+01    1.293948e+02
  4.150405e+01    1.311532e+02
  4.150442e+01    1.303298e+02
  4.150479e+01    1.304640e+02
  4.150516e+01    1.333855e+02
  4.150553e+01    1.347983e+02
  4.150590e+01    1.357624e+02
  4.150627e+01    1.348502e+02
  4.150664e+01    1.316260e+02
  4.150701e+01    1.298422e+02
  4.150738e+01    1.293748e+02
  4.150775e+01    1.309441e+02
  4.150812e+01    1.294700e+02
  4.150849e+01    1.295216e+02
  4.150886e+01    1.295400e+02
  4.150923e+01    1.261165e+02
  4.150960e+01    1.265211e+02
  4.150997e+01    1.271195e+02
  4.151034e+01    1.306248e+02
  4.151071e+01    1.357517e+02
  4.151108e+01    1.409348e+02
  4.151145e+01    1.431149e+02
  4.151182e+01    1.419339e+02
  4.151219e+01    1.389924e+02
  4.151256e+01    1.350258e+02
  4.151293e+01    1.318190e+02
  4.151330e+01    1.299981e+02
  4.151367e+01    1.305946e+02
  4.151404e+01    1.336199e+02
  4.151441e+01    1.338428e+02
  4.151478e+01    1.353694e+02
  4.151515e+01    1.352080e+02
  4.151552e+01    1.321572e+02
  4.151589e+01    1.313198e+02
  4.151626e+01    1.319931e+02
  4.151663e+01    1.323353e+02
  4.151700e+01    1.324574e+02
  4.151737e+01    1.331187e+02
  4.151774e+01    1.319369e+02
  4.151811e+01    1.299341e+02
  4.151848e+01    1.285251e+02
  4.151885e+01    1.283067e+02
  4.151922e+01    1.283265e+02
  4.151959e+01    1.298658e+02
  4.151996e+01    1.295795e+02
  4.152033e+01    1.286063e+02
  4.152070e+01    1.289415e+02
  4.152107e+01    1.275138e+02
  4.152144e+01    1.279522e+02
  4.152181e+01    1.285344e+02
  4.152218e+01    1.290029e+02
  4.152255e+01    1.295207e+02
  4.152292e+01    1.302205e+02
  4.152329e+01    1.301627e+02
  4.152366e+01    1.307488e+02
  4.152403e+01    1.320987e+02
  4.152440e+01    1.320834e+02
  4.152477e+01    1.313504e+02
  4.152514e+01    1.303980e+02
  4.152551e+01    1.302610e+02
  4.152588e+01    1.308206e+02
  4.152625e+01    1.339677e+02
  4.152662e+01    1.352004e+02
  4.152699e+01    1.328212e+02
  4.152736e+01    1.316739e+02
  4.152773e+01    1.303319e+02
  4.152810e+01    1.300795e+02
  4.152847e+01    1.324415e+02
  4.152884e+01    1.346480e+02
  4.152921e+01    1.348536e+02
  4.152958e+01    1.335883e+02
  4.152995e+01    1.303014e+02
  4.153032e+01    1.245798e+02
  4.153069e+01    1.206468e+02
  4.153106e+01    1.179141e+02
  4.153143e+01    1.191101e+02
  4.153180e+01    1.242903e+02
  4.153217e+01    1.297227e+02
  4.153254e+01    1.349139e+02
  4.153291e+01    1.360287e+02
  4.153328e+01    1.353919e+02
  4.153365e+01    1.352868e+02
  4.153402e+01    1.329392e+02
  4.153439e+01    1.303875e+02
  4.153476e+01    1.325350e+02
  4.153513e+01    1.340466e+02
  4.153550e+01    1.308957e+02
  4.153587e+01    1.333512e+02
  4.153624e+01    1.325277e+02
  4.153661e+01    1.290392e+02
  4.153698e+01    1.318487e+02
  4.153735e+01    1.324871e+02
  4.153772e+01    1.335354e+02
  4.153809e+01    1.350702e+02
  4.153846e+01    1.339428e+02
  4.153883e+01    1.322546e+02
  4.153920e+01    1.301296e+02
  4.153957e+01    1.282760e+02
  4.153994e+01    1.290194e+02
  4.154031e+01    1.307399e+02
  4.154068e+01    1.306458e+02
  4.154105e+01    1.283365e+02
  4.154142e+01    1.305110e+02
  4.154179e+01    1.293745e+02
  4.154216e+01    1.298036e+02
  4.154253e+01    1.317987e+02
  4.154290e+01    1.299058e+02
  4.154327e+01    1.278862e+02
  4.154364e+01    1.272523e+02
  4.154401e+01    1.256987e+02
  4.154438e+01    1.256556e+02
  4.154475e+01    1.285359e+02
  4.154512e+01    1.263685e+02
  4.154549e+01    1.247565e+02
  4.154586e+01    1.245027e+02
  4.154623e+01    1.210219e+02
  4.154660e+01    1.240381e+02
  4.154697e+01    1.277378e+02
  4.154734e+01    1.315473e+02
  4.154771e+01    1.344868e+02
  4.154808e+01    1.363768e+02
  4.154844e+01    1.352283e+02
  4.154881e+01    1.367137e+02
  4.154918e+01    1.355018e+02
  4.154955e+01    1.313104e+02
  4.154992e+01    1.302203e+02
  4.155029e+01    1.262691e+02
  4.155066e+01    1.264570e+02
  4.155103e+01    1.284447e+02
  4.155140e+01    1.251105e+02
  4.155177e+01    1.279563e+02
  4.155214e+01    1.264167e+02
  4.155251e+01    1.259883e+02
  4.155288e+01    1.257964e+02
  4.155325e+01    1.305909e+02
  4.155362e+01    1.326370e+02
  4.155399e+01    1.338093e+02
  4.155436e+01    1.344100e+02
  4.155473e+01    1.334854e+02
  4.155510e+01    1.316257e+02
  4.155547e+01    1.273286e+02
  4.155584e+01    1.315050e+02
  4.155621e+01    1.325648e+02
  4.155658e+01    1.285051e+02
  4.155695e+01    1.285051e+02
  4.155732e+01    1.313329e+02
  4.155769e+01    1.319375e+02
  4.155806e+01    1.334433e+02
  4.155843e+01    1.373692e+02
  4.155880e+01    1.365245e+02
  4.155917e+01    1.301945e+02
  4.155954e+01    1.281970e+02
  4.155991e+01    1.280344e+02
  4.156028e+01    1.251112e+02
  4.156065e+01    1.241793e+02
  4.156102e+01    1.220650e+02
  4.156139e+01    1.226847e+02
  4.156176e+01    1.255275e+02
  4.156213e+01    1.305614e+02
  4.156250e+01    1.326975e+02
  4.156287e+01    1.346186e+02
  4.156324e+01    1.308865e+02
  4.156361e+01    1.294048e+02
  4.156398e+01    1.264597e+02
  4.156435e+01    1.260558e+02
  4.156472e+01    1.248210e+02
  4.156509e+01    1.279553e+02
  4.156546e+01    1.338077e+02
  4.156583e+01    1.353180e+02
  4.156620e+01    1.369893e+02
  4.156657e+01    1.349983e+02
  4.156694e+01    1.295633e+02
  4.156731e+01    1.251024e+02
  4.156768e+01    1.276898e+02
  4.156805e+01    1.329414e+02
  4.156842e+01    1.361371e+02
  4.156879e+01    1.371197e+02
  4.156916e+01    1.373676e+02
  4.156953e+01    1.257029e+02
  4.156990e+01    1.237778e+02
  4.157027e+01    1.282558e+02
  4.157064e+01    1.323689e+02
  4.157101e+01    1.349610e+02
  4.157138e+01    1.385544e+02
  4.157175e+01    1.405697e+02
  4.157212e+01    1.349684e+02
  4.157249e+01    1.291715e+02
  4.157286e+01    1.261734e+02
  4.157323e+01    1.159081e+02
  4.157360e+01    1.121278e+02
  4.157397e+01    1.219568e+02
  4.157434e+01    1.263417e+02
  4.157471e+01    1.336741e+02
  4.157508e+01    1.396897e+02
  4.157545e+01    1.354167e+02
  4.157582e+01    1.323983e+02
  4.157619e+01    1.283581e+02
  4.157656e+01    1.242029e+02
  4.157693e+01    1.236770e+02
  4.157730e+01    1.328981e+02
  4.157767e+01    1.387920e+02
  4.157804e+01    1.387363e+02
  4.157841e+01    1.446001e+02
  4.157878e+01    1.367511e+02
  4.157915e+01    1.318104e+02
  4.157952e+01    1.280811e+02
  4.157989e+01    1.299658e+02
  4.158026e+01    1.235711e+02
  4.158063e+01    1.216683e+02
  4.158100e+01    1.268397e+02
  4.158137e+01    1.301782e+02
  4.158174e+01    1.441455e+02
  4.158211e+01    1.585740e+02
  4.158248e+01    1.775464e+02
  4.158285e+01    1.709604e+02
  4.158322e+01    1.671298e+02
  4.158359e+01    1.635818e+02
  4.158396e+01    1.550331e+02
  4.158433e+01    1.616733e+02
  4.158470e+01    1.657910e+02
  4.158507e+01    1.409331e+02
