# == pyFAI calibration ==
# Distance Sample to Detector: 0.9185303427416458 m
# PONI: 1.916e+00, 3.346e-01 m
# Rotations: 0.091722 -0.638530 -0.000021 rad
# 
# == Fit2d calibration ==
# Distance Sample-beamCenter: 1148.741 mm
# Center: x=1453.987, y=7156.945 pix
# Tilt: 36.908 deg  TiltPlanRot: -97.035 deg
# 
# Detector Pilatus 300kw	 PixelSize= 1.720e-04, 1.720e-04 m
#    Detector has a mask: True 
#    Detector has a dark current: False 
#    detector has a flat field: False 
# 
# Wavelength: 8.856e-11 m
# Mask applied: from detector
# Dark current applied: False
# Flat field applied: False
# Polarization factor: None
# Normalization factor: 1.0
# --> b_toney_lab6_th3_scan1_0029.xy
#       2th_deg             I 
  2.720597e+01    8.445964e+01
  2.720664e+01    8.751223e+01
  2.720731e+01    8.636378e+01
  2.720798e+01    8.135504e+01
  2.720865e+01    7.525314e+01
  2.720932e+01    7.624224e+01
  2.720999e+01    7.500958e+01
  2.721066e+01    7.494456e+01
  2.721133e+01    7.232588e+01
  2.721200e+01    7.134110e+01
  2.721267e+01    7.070125e+01
  2.721334e+01    6.855365e+01
  2.721401e+01    7.016582e+01
  2.721468e+01    7.121160e+01
  2.721535e+01    7.277457e+01
  2.721603e+01    7.131059e+01
  2.721670e+01    6.963295e+01
  2.721737e+01    6.842769e+01
  2.721804e+01    6.891410e+01
  2.721871e+01    6.932352e+01
  2.721938e+01    7.022565e+01
  2.722005e+01    7.052084e+01
  2.722072e+01    6.911285e+01
  2.722139e+01    6.842896e+01
  2.722206e+01    6.717018e+01
  2.722273e+01    6.666965e+01
  2.722340e+01    6.714111e+01
  2.722407e+01    6.669405e+01
  2.722474e+01    6.800256e+01
  2.722541e+01    6.720828e+01
  2.722608e+01    6.715172e+01
  2.722676e+01    6.540718e+01
  2.722743e+01    6.449234e+01
  2.722810e+01    6.425916e+01
  2.722877e+01    6.563718e+01
  2.722944e+01    6.606625e+01
  2.723011e+01    6.644288e+01
  2.723078e+01    6.641576e+01
  2.723145e+01    6.657381e+01
  2.723212e+01    6.731944e+01
  2.723279e+01    6.802921e+01
  2.723346e+01    6.828902e+01
  2.723413e+01    6.839698e+01
  2.723480e+01    6.862675e+01
  2.723547e+01    6.894380e+01
  2.723614e+01    6.729878e+01
  2.723682e+01    6.631365e+01
  2.723749e+01    6.583528e+01
  2.723816e+01    6.658030e+01
  2.723883e+01    6.684807e+01
  2.723950e+01    6.739310e+01
  2.724017e+01    6.777092e+01
  2.724084e+01    6.735651e+01
  2.724151e+01    6.838963e+01
  2.724218e+01    6.808545e+01
  2.724285e+01    6.789417e+01
  2.724352e+01    6.696451e+01
  2.724419e+01    6.653024e+01
  2.724486e+01    6.737378e+01
  2.724553e+01    6.785253e+01
  2.724620e+01    6.774169e+01
  2.724687e+01    6.847089e+01
  2.724755e+01    6.809194e+01
  2.724822e+01    6.722916e+01
  2.724889e+01    6.633618e+01
  2.724956e+01    6.597116e+01
  2.725023e+01    6.601277e+01
  2.725090e+01    6.651124e+01
  2.725157e+01    6.671700e+01
  2.725224e+01    6.717795e+01
  2.725291e+01    6.665515e+01
  2.725358e+01    6.672819e+01
  2.725425e+01    6.664003e+01
  2.725492e+01    6.672501e+01
  2.725559e+01    6.591126e+01
  2.725626e+01    6.617001e+01
  2.725693e+01    6.544013e+01
  2.725760e+01    6.626293e+01
  2.725828e+01    6.655109e+01
  2.725895e+01    6.686893e+01
  2.725962e+01    6.668372e+01
  2.726029e+01    6.604396e+01
  2.726096e+01    6.573308e+01
  2.726163e+01    6.476774e+01
  2.726230e+01    6.486761e+01
  2.726297e+01    6.462227e+01
  2.726364e+01    6.494383e+01
  2.726431e+01    6.485253e+01
  2.726498e+01    6.568732e+01
  2.726565e+01    6.618227e+01
  2.726632e+01    6.720155e+01
  2.726699e+01    6.613229e+01
  2.726766e+01    6.642117e+01
  2.726834e+01    6.680871e+01
  2.726901e+01    6.654839e+01
  2.726968e+01    6.551293e+01
  2.727035e+01    6.426385e+01
  2.727102e+01    6.373907e+01
  2.727169e+01    6.471819e+01
  2.727236e+01    6.537349e+01
  2.727303e+01    6.590822e+01
  2.727370e+01    6.546400e+01
  2.727437e+01    6.434150e+01
  2.727504e+01    6.346418e+01
  2.727571e+01    6.348690e+01
  2.727638e+01    6.400471e+01
  2.727705e+01    6.357249e+01
  2.727772e+01    6.352759e+01
  2.727839e+01    6.343739e+01
  2.727907e+01    6.346379e+01
  2.727974e+01    6.350230e+01
  2.728041e+01    6.345141e+01
  2.728108e+01    6.311984e+01
  2.728175e+01    6.348221e+01
  2.728242e+01    6.344810e+01
  2.728309e+01    6.478028e+01
  2.728376e+01    6.473813e+01
  2.728443e+01    6.509528e+01
  2.728510e+01    6.551801e+01
  2.728577e+01    6.516229e+01
  2.728644e+01    6.576805e+01
  2.728711e+01    6.509821e+01
  2.728778e+01    6.476608e+01
  2.728845e+01    6.509051e+01
  2.728913e+01    6.484844e+01
  2.728980e+01    6.437608e+01
  2.729047e+01    6.312565e+01
  2.729114e+01    6.275422e+01
  2.729181e+01    6.307489e+01
  2.729248e+01    6.326500e+01
  2.729315e+01    6.363568e+01
  2.729382e+01    6.387062e+01
  2.729449e+01    6.418594e+01
  2.729516e+01    6.470418e+01
  2.729583e+01    6.483821e+01
  2.729650e+01    6.515412e+01
  2.729717e+01    6.518634e+01
  2.729784e+01    6.515974e+01
  2.729851e+01    6.442107e+01
  2.729918e+01    6.403675e+01
  2.729986e+01    6.366760e+01
  2.730053e+01    6.391019e+01
  2.730120e+01    6.441696e+01
  2.730187e+01    6.451688e+01
  2.730254e+01    6.465669e+01
  2.730321e+01    6.450246e+01
  2.730388e+01    6.447716e+01
  2.730455e+01    6.512381e+01
  2.730522e+01    6.443271e+01
  2.730589e+01    6.450790e+01
  2.730656e+01    6.359134e+01
  2.730723e+01    6.320712e+01
  2.730790e+01    6.320571e+01
  2.730857e+01    6.330034e+01
  2.730924e+01    6.460741e+01
  2.730991e+01    6.525523e+01
  2.731059e+01    6.468108e+01
  2.731126e+01    6.383047e+01
  2.731193e+01    6.317944e+01
  2.731260e+01    6.346009e+01
  2.731327e+01    6.458855e+01
  2.731394e+01    6.468527e+01
  2.731461e+01    6.451602e+01
  2.731528e+01    6.467963e+01
  2.731595e+01    6.447236e+01
  2.731662e+01    6.430173e+01
  2.731729e+01    6.357316e+01
  2.731796e+01    6.427694e+01
  2.731863e+01    6.436360e+01
  2.731930e+01    6.453866e+01
  2.731997e+01    6.457011e+01
  2.732065e+01    6.494633e+01
  2.732132e+01    6.513639e+01
  2.732199e+01    6.486483e+01
  2.732266e+01    6.443781e+01
  2.732333e+01    6.424937e+01
  2.732400e+01    6.383990e+01
  2.732467e+01    6.352625e+01
  2.732534e+01    6.374759e+01
  2.732601e+01    6.357762e+01
  2.732668e+01    6.351301e+01
  2.732735e+01    6.324195e+01
  2.732802e+01    6.415386e+01
  2.732869e+01    6.519098e+01
  2.732936e+01    6.550600e+01
  2.733003e+01    6.503516e+01
  2.733070e+01    6.455160e+01
  2.733138e+01    6.429807e+01
  2.733205e+01    6.419862e+01
  2.733272e+01    6.387117e+01
  2.733339e+01    6.360783e+01
  2.733406e+01    6.339297e+01
  2.733473e+01    6.249569e+01
  2.733540e+01    6.231108e+01
  2.733607e+01    6.180055e+01
  2.733674e+01    6.294140e+01
  2.733741e+01    6.387492e+01
  2.733808e+01    6.415079e+01
  2.733875e+01    6.427536e+01
  2.733942e+01    6.497944e+01
  2.734009e+01    6.546194e+01
  2.734076e+01    6.573565e+01
  2.734143e+01    6.538220e+01
  2.734211e+01    6.483630e+01
  2.734278e+01    6.374014e+01
  2.734345e+01    6.348193e+01
  2.734412e+01    6.374559e+01
  2.734479e+01    6.459589e+01
  2.734546e+01    6.515205e+01
  2.734613e+01    6.456928e+01
  2.734680e+01    6.408347e+01
  2.734747e+01    6.393805e+01
  2.734814e+01    6.425278e+01
  2.734881e+01    6.471628e+01
  2.734948e+01    6.537346e+01
  2.735015e+01    6.472465e+01
  2.735082e+01    6.486896e+01
  2.735149e+01    6.472734e+01
  2.735217e+01    6.449230e+01
  2.735284e+01    6.423331e+01
  2.735351e+01    6.424625e+01
  2.735418e+01    6.367290e+01
  2.735485e+01    6.384668e+01
  2.735552e+01    6.410425e+01
  2.735619e+01    6.485145e+01
  2.735686e+01    6.541244e+01
  2.735753e+01    6.544635e+01
  2.735820e+01    6.477706e+01
  2.735887e+01    6.509703e+01
  2.735954e+01    6.527866e+01
  2.736021e+01    6.514088e+01
  2.736088e+01    6.457047e+01
  2.736155e+01    6.463424e+01
  2.736222e+01    6.528538e+01
  2.736290e+01    6.577859e+01
  2.736357e+01    6.539236e+01
  2.736424e+01    6.529330e+01
  2.736491e+01    6.557469e+01
  2.736558e+01    6.594238e+01
  2.736625e+01    6.545085e+01
  2.736692e+01    6.556879e+01
  2.736759e+01    6.571104e+01
  2.736826e+01    6.627729e+01
  2.736893e+01    6.595098e+01
  2.736960e+01    6.552067e+01
  2.737027e+01    6.657025e+01
  2.737094e+01    6.674382e+01
  2.737161e+01    6.676172e+01
  2.737228e+01    6.563751e+01
  2.737295e+01    6.533437e+01
  2.737363e+01    6.615112e+01
  2.737430e+01    6.617151e+01
  2.737497e+01    6.608304e+01
  2.737564e+01    6.575274e+01
  2.737631e+01    6.482686e+01
  2.737698e+01    6.484810e+01
  2.737765e+01    6.400383e+01
  2.737832e+01    6.426253e+01
  2.737899e+01    6.404896e+01
  2.737966e+01    6.463734e+01
  2.738033e+01    6.429121e+01
  2.738100e+01    6.465000e+01
  2.738167e+01    6.440373e+01
  2.738234e+01    6.507591e+01
  2.738301e+01    6.583052e+01
  2.738369e+01    6.630396e+01
  2.738436e+01    6.577241e+01
  2.738503e+01    6.537702e+01
  2.738570e+01    6.477544e+01
  2.738637e+01    6.507269e+01
  2.738704e+01    6.558854e+01
  2.738771e+01    6.601668e+01
  2.738838e+01    6.632492e+01
  2.738905e+01    6.730998e+01
  2.738972e+01    6.794067e+01
  2.739039e+01    6.837762e+01
  2.739106e+01    6.899820e+01
  2.739173e+01    6.866730e+01
  2.739240e+01    6.893816e+01
  2.739307e+01    6.851260e+01
  2.739374e+01    6.766131e+01
  2.739442e+01    6.783981e+01
  2.739509e+01    6.756312e+01
  2.739576e+01    6.743633e+01
  2.739643e+01    6.728357e+01
  2.739710e+01    6.627577e+01
  2.739777e+01    6.511935e+01
  2.739844e+01    6.470066e+01
  2.739911e+01    6.460186e+01
  2.739978e+01    6.507748e+01
  2.740045e+01    6.595911e+01
  2.740112e+01    6.626672e+01
  2.740179e+01    6.703159e+01
  2.740246e+01    6.692210e+01
  2.740313e+01    6.729688e+01
  2.740380e+01    6.709996e+01
  2.740447e+01    6.719035e+01
  2.740515e+01    6.715286e+01
  2.740582e+01    6.681619e+01
  2.740649e+01    6.688466e+01
  2.740716e+01    6.679916e+01
  2.740783e+01    6.608352e+01
  2.740850e+01    6.559365e+01
  2.740917e+01    6.579810e+01
  2.740984e+01    6.609393e+01
  2.741051e+01    6.677589e+01
  2.741118e+01    6.672944e+01
  2.741185e+01    6.586938e+01
  2.741252e+01    6.559208e+01
  2.741319e+01    6.540408e+01
  2.741386e+01    6.512387e+01
  2.741453e+01    6.510799e+01
  2.741521e+01    6.491862e+01
  2.741588e+01    6.597467e+01
  2.741655e+01    6.716016e+01
  2.741722e+01    6.763875e+01
  2.741789e+01    6.711227e+01
  2.741856e+01    6.604074e+01
  2.741923e+01    6.581858e+01
  2.741990e+01    6.589069e+01
  2.742057e+01    6.595818e+01
  2.742124e+01    6.599602e+01
  2.742191e+01    6.592616e+01
  2.742258e+01    6.553856e+01
  2.742325e+01    6.545982e+01
  2.742392e+01    6.555145e+01
  2.742459e+01    6.532498e+01
  2.742526e+01    6.543697e+01
  2.742594e+01    6.526987e+01
  2.742661e+01    6.475017e+01
  2.742728e+01    6.432181e+01
  2.742795e+01    6.356635e+01
  2.742862e+01    6.352421e+01
  2.742929e+01    6.375659e+01
  2.742996e+01    6.383941e+01
  2.743063e+01    6.424097e+01
  2.743130e+01    6.449557e+01
  2.743197e+01    6.474886e+01
  2.743264e+01    6.481123e+01
  2.743331e+01    6.457571e+01
  2.743398e+01    6.506290e+01
  2.743465e+01    6.518571e+01
  2.743532e+01    6.580009e+01
  2.743599e+01    6.624116e+01
  2.743667e+01    6.616027e+01
  2.743734e+01    6.631065e+01
  2.743801e+01    6.600890e+01
  2.743868e+01    6.544611e+01
  2.743935e+01    6.583508e+01
  2.744002e+01    6.493287e+01
  2.744069e+01    6.471918e+01
  2.744136e+01    6.440884e+01
  2.744203e+01    6.474670e+01
  2.744270e+01    6.521570e+01
  2.744337e+01    6.534218e+01
  2.744404e+01    6.494590e+01
  2.744471e+01    6.486990e+01
  2.744538e+01    6.463125e+01
  2.744605e+01    6.505913e+01
  2.744673e+01    6.542041e+01
  2.744740e+01    6.496259e+01
  2.744807e+01    6.535754e+01
  2.744874e+01    6.536937e+01
  2.744941e+01    6.527090e+01
  2.745008e+01    6.506097e+01
  2.745075e+01    6.484149e+01
  2.745142e+01    6.483546e+01
  2.745209e+01    6.530730e+01
  2.745276e+01    6.620908e+01
  2.745343e+01    6.681772e+01
  2.745410e+01    6.775031e+01
  2.745477e+01    6.734875e+01
  2.745544e+01    6.697414e+01
  2.745611e+01    6.648574e+01
  2.745678e+01    6.722358e+01
  2.745746e+01    6.741952e+01
  2.745813e+01    6.740729e+01
  2.745880e+01    6.682751e+01
  2.745947e+01    6.662484e+01
  2.746014e+01    6.663944e+01
  2.746081e+01    6.669264e+01
  2.746148e+01    6.692760e+01
  2.746215e+01    6.709581e+01
  2.746282e+01    6.721761e+01
  2.746349e+01    6.800990e+01
  2.746416e+01    6.747311e+01
  2.746483e+01    6.725776e+01
  2.746550e+01    6.691690e+01
  2.746617e+01    6.699648e+01
  2.746684e+01    6.793114e+01
  2.746752e+01    6.864267e+01
  2.746819e+01    6.866232e+01
  2.746886e+01    6.798578e+01
  2.746953e+01    6.716602e+01
  2.747020e+01    6.650224e+01
  2.747087e+01    6.651909e+01
  2.747154e+01    6.672841e+01
  2.747221e+01    6.752456e+01
  2.747288e+01    6.842460e+01
  2.747355e+01    6.915654e+01
  2.747422e+01    6.927455e+01
  2.747489e+01    6.898754e+01
  2.747556e+01    6.923533e+01
  2.747623e+01    7.019077e+01
  2.747690e+01    7.104910e+01
  2.747757e+01    7.166518e+01
  2.747825e+01    7.155910e+01
  2.747892e+01    7.224664e+01
  2.747959e+01    7.313817e+01
  2.748026e+01    7.309126e+01
  2.748093e+01    7.329851e+01
  2.748160e+01    7.259883e+01
  2.748227e+01    7.186185e+01
  2.748294e+01    7.140209e+01
  2.748361e+01    7.230202e+01
  2.748428e+01    7.321424e+01
  2.748495e+01    7.369730e+01
  2.748562e+01    7.375197e+01
  2.748629e+01    7.402845e+01
  2.748696e+01    7.422034e+01
  2.748763e+01    7.476274e+01
  2.748830e+01    7.428181e+01
  2.748898e+01    7.447697e+01
  2.748965e+01    7.505253e+01
  2.749032e+01    7.519209e+01
  2.749099e+01    7.497548e+01
  2.749166e+01    7.408465e+01
  2.749233e+01    7.401482e+01
  2.749300e+01    7.459977e+01
  2.749367e+01    7.429707e+01
  2.749434e+01    7.480304e+01
  2.749501e+01    7.537200e+01
  2.749568e+01    7.581642e+01
  2.749635e+01    7.592872e+01
  2.749702e+01    7.586292e+01
  2.749769e+01    7.528535e+01
  2.749836e+01    7.484290e+01
  2.749904e+01    7.565089e+01
  2.749971e+01    7.642888e+01
  2.750038e+01    7.710553e+01
  2.750105e+01    7.706251e+01
  2.750172e+01    7.690743e+01
  2.750239e+01    7.717686e+01
  2.750306e+01    7.726740e+01
  2.750373e+01    7.743265e+01
  2.750440e+01    7.777388e+01
  2.750507e+01    7.879455e+01
  2.750574e+01    7.942716e+01
  2.750641e+01    8.056671e+01
  2.750708e+01    8.122862e+01
  2.750775e+01    8.189828e+01
  2.750842e+01    8.286039e+01
  2.750909e+01    8.297766e+01
  2.750977e+01    8.328896e+01
  2.751044e+01    8.309364e+01
  2.751111e+01    8.350261e+01
  2.751178e+01    8.461318e+01
  2.751245e+01    8.557660e+01
  2.751312e+01    8.577835e+01
  2.751379e+01    8.616943e+01
  2.751446e+01    8.600913e+01
  2.751513e+01    8.812149e+01
  2.751580e+01    8.912659e+01
  2.751647e+01    9.051482e+01
  2.751714e+01    9.106077e+01
  2.751781e+01    9.124511e+01
  2.751848e+01    9.207319e+01
  2.751915e+01    9.258870e+01
  2.751982e+01    9.400758e+01
  2.752050e+01    9.597202e+01
  2.752117e+01    9.740031e+01
  2.752184e+01    9.908447e+01
  2.752251e+01    1.005403e+02
  2.752318e+01    1.017929e+02
  2.752385e+01    1.021671e+02
  2.752452e+01    1.019952e+02
  2.752519e+01    1.024795e+02
  2.752586e+01    1.036585e+02
  2.752653e+01    1.059157e+02
  2.752720e+01    1.084545e+02
  2.752787e+01    1.117164e+02
  2.752854e+01    1.129101e+02
  2.752921e+01    1.140616e+02
  2.752988e+01    1.152077e+02
  2.753056e+01    1.176393e+02
  2.753123e+01    1.206911e+02
  2.753190e+01    1.237075e+02
  2.753257e+01    1.265402e+02
  2.753324e+01    1.307760e+02
  2.753391e+01    1.356319e+02
  2.753458e+01    1.393941e+02
  2.753525e+01    1.430183e+02
  2.753592e+01    1.469008e+02
  2.753659e+01    1.510379e+02
  2.753726e+01    1.562708e+02
  2.753793e+01    1.613025e+02
  2.753860e+01    1.676451e+02
  2.753927e+01    1.761085e+02
  2.753994e+01    1.863595e+02
  2.754061e+01    1.967406e+02
  2.754129e+01    2.079712e+02
  2.754196e+01    2.199271e+02
  2.754263e+01    2.319407e+02
  2.754330e+01    2.495770e+02
  2.754397e+01    2.672959e+02
  2.754464e+01    2.879739e+02
  2.754531e+01    3.183438e+02
  2.754598e+01    3.484966e+02
  2.754665e+01    3.832175e+02
  2.754732e+01    4.686808e+02
  2.754799e+01    5.232186e+02
  2.754866e+01    5.968184e+02
  2.754933e+01    7.594530e+02
  2.755000e+01    8.904008e+02
  2.755067e+01    1.023648e+03
  2.755134e+01    1.219353e+03
  2.755202e+01    1.526666e+03
  2.755269e+01    1.923271e+03
  2.755336e+01    2.531370e+03
  2.755403e+01    3.236734e+03
  2.755470e+01    3.811240e+03
  2.755537e+01    5.057047e+03
  2.755604e+01    6.410910e+03
  2.755671e+01    7.210527e+03
  2.755738e+01    8.958179e+03
  2.755805e+01    1.036966e+04
  2.755872e+01    1.190771e+04
  2.755939e+01    1.353558e+04
  2.756006e+01    1.427263e+04
  2.756073e+01    1.510541e+04
  2.756140e+01    1.475871e+04
  2.756208e+01    1.339926e+04
  2.756275e+01    1.106067e+04
  2.756342e+01    8.173437e+03
  2.756409e+01    7.214301e+03
  2.756476e+01    6.397410e+03
  2.756543e+01    5.576472e+03
  2.756610e+01    4.744038e+03
  2.756677e+01    3.833721e+03
  2.756744e+01    2.802246e+03
  2.756811e+01    2.150687e+03
  2.756878e+01    1.646215e+03
  2.756945e+01    1.099700e+03
  2.757012e+01    8.734956e+02
  2.757079e+01    7.283326e+02
  2.757146e+01    6.217081e+02
  2.757213e+01    5.389240e+02
  2.757281e+01    4.665331e+02
  2.757348e+01    4.117565e+02
  2.757415e+01    3.704056e+02
  2.757482e+01    3.367489e+02
  2.757549e+01    3.047028e+02
  2.757616e+01    2.791355e+02
  2.757683e+01    2.578570e+02
  2.757750e+01    2.408683e+02
  2.757817e+01    2.285688e+02
  2.757884e+01    2.160126e+02
  2.757951e+01    2.047231e+02
  2.758018e+01    1.942588e+02
  2.758085e+01    1.855767e+02
  2.758152e+01    1.775414e+02
  2.758219e+01    1.706463e+02
  2.758286e+01    1.649070e+02
  2.758354e+01    1.581949e+02
  2.758421e+01    1.527918e+02
  2.758488e+01    1.482282e+02
  2.758555e+01    1.441576e+02
  2.758622e+01    1.398563e+02
  2.758689e+01    1.355908e+02
  2.758756e+01    1.322730e+02
  2.758823e+01    1.281943e+02
  2.758890e+01    1.255972e+02
  2.758957e+01    1.216951e+02
  2.759024e+01    1.192394e+02
  2.759091e+01    1.169661e+02
  2.759158e+01    1.160167e+02
  2.759225e+01    1.151281e+02
  2.759292e+01    1.137643e+02
  2.759360e+01    1.104112e+02
  2.759427e+01    1.073090e+02
  2.759494e+01    1.043191e+02
  2.759561e+01    1.022849e+02
  2.759628e+01    1.017425e+02
  2.759695e+01    1.008890e+02
  2.759762e+01    9.984704e+01
  2.759829e+01    9.776054e+01
  2.759896e+01    9.714460e+01
  2.759963e+01    9.697836e+01
  2.760030e+01    9.636544e+01
  2.760097e+01    9.501540e+01
  2.760164e+01    9.308062e+01
  2.760231e+01    9.182212e+01
  2.760298e+01    9.166818e+01
  2.760365e+01    9.099174e+01
  2.760433e+01    9.005512e+01
  2.760500e+01    8.900063e+01
  2.760567e+01    8.834746e+01
  2.760634e+01    8.739070e+01
  2.760701e+01    8.618609e+01
  2.760768e+01    8.473502e+01
  2.760835e+01    8.401466e+01
  2.760902e+01    8.408565e+01
  2.760969e+01    8.433521e+01
  2.761036e+01    8.354548e+01
  2.761103e+01    8.193239e+01
  2.761170e+01    8.141905e+01
  2.761237e+01    8.116028e+01
  2.761304e+01    8.154691e+01
  2.761371e+01    8.196111e+01
  2.761439e+01    8.056501e+01
  2.761506e+01    7.963494e+01
  2.761573e+01    7.859572e+01
  2.761640e+01    7.877161e+01
  2.761707e+01    7.850212e+01
  2.761774e+01    7.812896e+01
  2.761841e+01    7.731215e+01
  2.761908e+01    7.644147e+01
  2.761975e+01    7.628391e+01
  2.762042e+01    7.636094e+01
  2.762109e+01    7.627175e+01
  2.762176e+01    7.620515e+01
  2.762243e+01    7.545477e+01
  2.762310e+01    7.461719e+01
  2.762377e+01    7.469255e+01
  2.762444e+01    7.422965e+01
  2.762512e+01    7.465225e+01
  2.762579e+01    7.375957e+01
  2.762646e+01    7.347729e+01
  2.762713e+01    7.283691e+01
  2.762780e+01    7.289965e+01
  2.762847e+01    7.254877e+01
  2.762914e+01    7.241525e+01
  2.762981e+01    7.153336e+01
  2.763048e+01    7.230395e+01
  2.763115e+01    7.298620e+01
  2.763182e+01    7.329079e+01
  2.763249e+01    7.269750e+01
  2.763316e+01    7.173746e+01
  2.763383e+01    7.121836e+01
  2.763450e+01    7.124693e+01
  2.763517e+01    7.071471e+01
  2.763585e+01    7.091542e+01
  2.763652e+01    7.130373e+01
  2.763719e+01    7.116019e+01
  2.763786e+01    7.078356e+01
  2.763853e+01    7.064695e+01
  2.763920e+01    7.073923e+01
  2.763987e+01    7.074567e+01
  2.764054e+01    7.073354e+01
  2.764121e+01    6.971835e+01
  2.764188e+01    6.862521e+01
  2.764255e+01    6.794107e+01
  2.764322e+01    6.729131e+01
  2.764389e+01    6.834652e+01
  2.764456e+01    6.913099e+01
  2.764523e+01    6.924116e+01
  2.764591e+01    6.957412e+01
  2.764658e+01    6.925202e+01
  2.764725e+01    6.858257e+01
  2.764792e+01    6.795219e+01
  2.764859e+01    6.784830e+01
  2.764926e+01    6.759930e+01
  2.764993e+01    6.831429e+01
  2.765060e+01    6.819627e+01
  2.765127e+01    6.764098e+01
  2.765194e+01    6.767796e+01
  2.765261e+01    6.675907e+01
  2.765328e+01    6.768388e+01
  2.765395e+01    6.773681e+01
  2.765462e+01    6.818774e+01
  2.765529e+01    6.786873e+01
  2.765596e+01    6.735561e+01
  2.765664e+01    6.703925e+01
  2.765731e+01    6.661149e+01
  2.765798e+01    6.597265e+01
  2.765865e+01    6.569743e+01
  2.765932e+01    6.563059e+01
  2.765999e+01    6.512336e+01
  2.766066e+01    6.631107e+01
  2.766133e+01    6.685499e+01
  2.766200e+01    6.725176e+01
  2.766267e+01    6.863816e+01
  2.766334e+01    6.829547e+01
  2.766401e+01    6.838365e+01
  2.766468e+01    6.750149e+01
  2.766535e+01    6.631314e+01
  2.766602e+01    6.635860e+01
  2.766669e+01    6.558070e+01
  2.766737e+01    6.571951e+01
  2.766804e+01    6.550397e+01
  2.766871e+01    6.558875e+01
  2.766938e+01    6.622359e+01
  2.767005e+01    6.614873e+01
  2.767072e+01    6.513850e+01
  2.767139e+01    6.394503e+01
  2.767206e+01    6.386610e+01
  2.767273e+01    6.348571e+01
  2.767340e+01    6.443502e+01
  2.767407e+01    6.466367e+01
  2.767474e+01    6.478226e+01
  2.767541e+01    6.499120e+01
  2.767608e+01    6.526136e+01
  2.767675e+01    6.475024e+01
  2.767743e+01    6.585169e+01
  2.767810e+01    6.608447e+01
  2.767877e+01    6.646064e+01
  2.767944e+01    6.706257e+01
  2.768011e+01    6.578734e+01
  2.768078e+01    6.421008e+01
  2.768145e+01    6.349953e+01
  2.768212e+01    6.267393e+01
  2.768279e+01    6.183824e+01
  2.768346e+01    6.215224e+01
  2.768413e+01    6.242318e+01
  2.768480e+01    6.380573e+01
  2.768547e+01    6.402382e+01
  2.768614e+01    6.419163e+01
  2.768681e+01    6.478268e+01
  2.768748e+01    6.446644e+01
  2.768816e+01    6.524071e+01
  2.768883e+01    6.525285e+01
  2.768950e+01    6.453799e+01
  2.769017e+01    6.378035e+01
  2.769084e+01    6.380774e+01
  2.769151e+01    6.258205e+01
  2.769218e+01    6.191695e+01
  2.769285e+01    6.189647e+01
  2.769352e+01    6.174003e+01
  2.769419e+01    6.212558e+01
  2.769486e+01    6.215681e+01
  2.769553e+01    6.201305e+01
  2.769620e+01    6.252901e+01
  2.769687e+01    6.394159e+01
  2.769754e+01    6.423489e+01
  2.769821e+01    6.432723e+01
  2.769889e+01    6.421219e+01
  2.769956e+01    6.327365e+01
  2.770023e+01    6.413400e+01
  2.770090e+01    6.257593e+01
  2.770157e+01    6.357566e+01
  2.770224e+01    6.249283e+01
  2.770291e+01    6.195465e+01
  2.770358e+01    6.287040e+01
  2.770425e+01    6.296750e+01
  2.770492e+01    6.316510e+01
  2.770559e+01    6.346803e+01
  2.770626e+01    6.244501e+01
  2.770693e+01    6.235757e+01
  2.770760e+01    6.310705e+01
  2.770827e+01    6.281705e+01
  2.770895e+01    6.335902e+01
  2.770962e+01    6.292259e+01
  2.771029e+01    6.304059e+01
  2.771096e+01    6.322448e+01
  2.771163e+01    6.291570e+01
  2.771230e+01    6.177286e+01
  2.771297e+01    6.231475e+01
  2.771364e+01    6.204700e+01
  2.771431e+01    6.220401e+01
  2.771498e+01    6.143872e+01
  2.771565e+01    6.080828e+01
  2.771632e+01    5.953066e+01
  2.771699e+01    6.024123e+01
  2.771766e+01    5.969638e+01
  2.771833e+01    5.973620e+01
  2.771900e+01    6.118542e+01
  2.771968e+01    6.133723e+01
  2.772035e+01    6.242617e+01
  2.772102e+01    6.263620e+01
  2.772169e+01    6.191888e+01
  2.772236e+01    6.059836e+01
  2.772303e+01    5.851940e+01
  2.772370e+01    5.846714e+01
  2.772437e+01    5.872490e+01
  2.772504e+01    5.873756e+01
  2.772571e+01    6.053433e+01
  2.772638e+01    6.103402e+01
  2.772705e+01    6.139848e+01
  2.772772e+01    6.259000e+01
  2.772839e+01    6.276212e+01
  2.772906e+01    6.276251e+01
  2.772973e+01    6.280043e+01
  2.773041e+01    6.216642e+01
  2.773108e+01    6.134518e+01
  2.773175e+01    6.182027e+01
  2.773242e+01    6.208229e+01
  2.773309e+01    6.087809e+01
  2.773376e+01    6.024693e+01
  2.773443e+01    6.079792e+01
  2.773510e+01    6.022257e+01
  2.773577e+01    6.145214e+01
  2.773644e+01    6.006826e+01
  2.773711e+01    6.048525e+01
  2.773778e+01    6.000639e+01
  2.773845e+01    5.927092e+01
  2.773912e+01    5.918109e+01
  2.773979e+01    5.884383e+01
  2.774047e+01    5.920338e+01
  2.774114e+01    6.023935e+01
  2.774181e+01    6.135628e+01
  2.774248e+01    6.226306e+01
  2.774315e+01    6.146330e+01
  2.774382e+01    5.989232e+01
  2.774449e+01    5.876676e+01
  2.774516e+01    5.863622e+01
  2.774583e+01    5.993275e+01
  2.774650e+01    6.067687e+01
  2.774717e+01    6.049800e+01
  2.774784e+01    6.034517e+01
  2.774851e+01    5.996709e+01
  2.774918e+01    5.992100e+01
  2.774985e+01    5.927373e+01
  2.775052e+01    5.827361e+01
  2.775120e+01    5.758876e+01
  2.775187e+01    5.742875e+01
  2.775254e+01    5.791415e+01
  2.775321e+01    5.822654e+01
  2.775388e+01    5.868514e+01
  2.775455e+01    5.897169e+01
  2.775522e+01    5.900387e+01
  2.775589e+01    6.013953e+01
  2.775656e+01    6.044136e+01
  2.775723e+01    6.124104e+01
  2.775790e+01    6.193798e+01
  2.775857e+01    6.052253e+01
  2.775924e+01    5.974395e+01
  2.775991e+01    5.858447e+01
  2.776058e+01    5.779731e+01
  2.776126e+01    5.876867e+01
  2.776193e+01    5.844195e+01
  2.776260e+01    5.884169e+01
  2.776327e+01    5.772631e+01
  2.776394e+01    5.651217e+01
  2.776461e+01    5.685618e+01
  2.776528e+01    5.648788e+01
  2.776595e+01    5.883051e+01
  2.776662e+01    5.845137e+01
  2.776729e+01    5.916322e+01
  2.776796e+01    6.090380e+01
  2.776863e+01    6.225941e+01
  2.776930e+01    6.447968e+01
  2.776997e+01    6.439738e+01
  2.777064e+01    6.301632e+01
  2.777131e+01    6.074701e+01
  2.777199e+01    5.760815e+01
  2.777266e+01    5.587218e+01
  2.777333e+01    5.567966e+01
  2.777400e+01    5.737770e+01
  2.777467e+01    5.896934e+01
  2.777534e+01    6.075129e+01
  2.777601e+01    6.070832e+01
  2.777668e+01    6.035765e+01
  2.777735e+01    6.100105e+01
  2.777802e+01    6.010001e+01
  2.777869e+01    6.050170e+01
  2.777936e+01    5.833764e+01
  2.778003e+01    5.778034e+01
  2.778070e+01    5.783660e+01
  2.778137e+01    5.859333e+01
  2.778204e+01    6.120954e+01
  2.778272e+01    6.179650e+01
  2.778339e+01    6.042799e+01
  2.778406e+01    6.116684e+01
  2.778473e+01    6.032973e+01
  2.778540e+01    6.037757e+01
  2.778607e+01    5.959009e+01
  2.778674e+01    5.785386e+01
  2.778741e+01    5.769907e+01
  2.778808e+01    5.793149e+01
  2.778875e+01    5.960706e+01
  2.778942e+01    6.014085e+01
  2.779009e+01    6.086958e+01
  2.779076e+01    6.055679e+01
  2.779143e+01    6.056288e+01
  2.779210e+01    6.066584e+01
  2.779278e+01    5.925666e+01
  2.779345e+01    5.917522e+01
  2.779412e+01    5.707263e+01
  2.779479e+01    5.717242e+01
  2.779546e+01    5.682755e+01
  2.779613e+01    5.644184e+01
  2.779680e+01    5.707148e+01
  2.779747e+01    5.864921e+01
  2.779814e+01    6.020498e+01
  2.779881e+01    6.142866e+01
  2.779948e+01    6.132895e+01
  2.780015e+01    6.057374e+01
  2.780082e+01    6.022048e+01
  2.780149e+01    6.033696e+01
  2.780216e+01    6.175994e+01
  2.780283e+01    6.078391e+01
  2.780351e+01    5.945419e+01
  2.780418e+01    5.753190e+01
  2.780485e+01    5.554220e+01
  2.780552e+01    5.714523e+01
  2.780619e+01    5.805043e+01
  2.780686e+01    5.900027e+01
  2.780753e+01    5.907265e+01
  2.780820e+01    5.912909e+01
  2.780887e+01    5.787666e+01
  2.780954e+01    5.822359e+01
  2.781021e+01    5.949121e+01
  2.781088e+01    6.007648e+01
  2.781155e+01    6.112241e+01
  2.781222e+01    6.012500e+01
  2.781289e+01    5.801185e+01
  2.781356e+01    5.933471e+01
  2.781424e+01    5.871605e+01
  2.781491e+01    5.928358e+01
  2.781558e+01    5.956081e+01
  2.781625e+01    5.855669e+01
  2.781692e+01    5.883587e+01
  2.781759e+01    5.867260e+01
  2.781826e+01    5.969999e+01
  2.781893e+01    5.964126e+01
  2.781960e+01    6.104295e+01
  2.782027e+01    6.067304e+01
  2.782094e+01    5.991929e+01
  2.782161e+01    5.987894e+01
  2.782228e+01    6.037140e+01
  2.782295e+01    5.998900e+01
  2.782362e+01    5.924537e+01
  2.782430e+01    5.848764e+01
  2.782497e+01    5.893649e+01
  2.782564e+01    5.898177e+01
  2.782631e+01    5.905707e+01
  2.782698e+01    5.919696e+01
  2.782765e+01    5.798337e+01
  2.782832e+01    5.917204e+01
  2.782899e+01    6.039320e+01
  2.782966e+01    6.068488e+01
  2.783033e+01    6.187609e+01
  2.783100e+01    6.265613e+01
  2.783167e+01    6.062845e+01
  2.783234e+01    6.088532e+01
  2.783301e+01    5.975567e+01
  2.783368e+01    5.882310e+01
  2.783435e+01    5.892389e+01
  2.783503e+01    6.054541e+01
  2.783570e+01    6.088088e+01
  2.783637e+01    6.210464e+01
  2.783704e+01    6.292276e+01
  2.783771e+01    6.233321e+01
  2.783838e+01    6.193576e+01
  2.783905e+01    6.098289e+01
  2.783972e+01    5.891956e+01
  2.784039e+01    5.691285e+01
  2.784106e+01    5.668839e+01
  2.784173e+01    5.648485e+01
  2.784240e+01    5.876139e+01
  2.784307e+01    5.931573e+01
  2.784374e+01    5.968668e+01
  2.784441e+01    5.968037e+01
  2.784508e+01    5.773616e+01
  2.784576e+01    5.740405e+01
  2.784643e+01    5.693837e+01
  2.784710e+01    5.631179e+01
  2.784777e+01    5.749616e+01
  2.784844e+01    5.642846e+01
  2.784911e+01    5.729292e+01
  2.784978e+01    5.577428e+01
  2.785045e+01    5.737823e+01
  2.785112e+01    6.453076e+01
  2.785179e+01    6.434277e+01
  2.785246e+01    6.423340e+01
  2.785313e+01    6.308583e+01
  2.785380e+01    5.969585e+01
  2.785447e+01    6.037555e+01
  2.785514e+01    5.930970e+01
  2.785582e+01    5.579223e+01
  2.785649e+01    5.539544e+01
  2.785716e+01    5.558402e+01
  2.785783e+01    5.728055e+01
  2.785850e+01    5.663389e+01
  2.785917e+01    5.469322e+01
  2.785984e+01    5.653170e+01
  2.786051e+01    5.533473e+01
  2.786118e+01    5.861269e+01
  2.786185e+01    5.918979e+01
  2.786252e+01    5.968447e+01
  2.786319e+01    6.052456e+01
  2.786386e+01    5.832648e+01
  2.786453e+01    6.206328e+01
  2.786520e+01    6.161913e+01
  2.786587e+01    6.002784e+01
  2.786655e+01    5.869416e+01
  2.786722e+01    5.645631e+01
  2.786789e+01    5.812397e+01
  2.786856e+01    6.109804e+01
  2.786923e+01    5.957713e+01
  2.786990e+01    5.798472e+01
  2.787057e+01    5.560469e+01
  2.787124e+01    5.374047e+01
  2.787191e+01    5.355487e+01
  2.787258e+01    5.543532e+01
  2.787325e+01    5.998311e+01
  2.787392e+01    6.110487e+01
  2.787459e+01    5.927415e+01
  2.787526e+01    6.068493e+01
  2.787593e+01    5.801975e+01
  2.787660e+01    6.122062e+01
  2.787728e+01    6.314161e+01
  2.787795e+01    5.693265e+01
  2.787862e+01    5.591520e+01
  2.787929e+01    5.743320e+01
  2.787996e+01    5.983479e+01
  2.788063e+01    6.665359e+01
  2.788130e+01    6.320960e+01
  2.788197e+01    5.875680e+01
  2.788264e+01    5.882154e+01
  2.788331e+01    5.623906e+01
  2.788398e+01    5.687050e+01
  2.788465e+01    6.164982e+01
  2.788532e+01    6.021684e+01
  2.788599e+01    5.782667e+01
  2.788666e+01    5.286447e+01
  2.788734e+01    4.592046e+01
  2.788801e+01    5.102869e+01
  2.788868e+01    6.281944e+01
  2.788935e+01    7.769012e+01
  2.789002e+01    8.609052e+01
  2.789069e+01    7.083514e+01
  2.789136e+01    6.418864e+01
  2.789203e+01    4.133223e+01
